"Latest: Time (s)","Latest: Potential (mV)","Latest: Current (A)"
0,404.520153809,-0.124340057373
0.001,398.868786621,-0.148754119873
0.002,391.333630371,-0.17162322998
0.003,382.85657959,-0.194892883301
0.004,372.495739746,-0.216636657715
0.005,361.6875,-0.238380432129
0.006,349.442871094,-0.25936126709
0.007,336.256347656,-0.278816223145
0.008,321.656982422,-0.297889709473
0.009,306.13927002,-0.316200256348
0.01,289.656115723,-0.333366394043
0.011,272.231066895,-0.349006652832
0.012,253.887670898,-0.363864898682
0.013,235.520727539,-0.377597808838
0.014,215.29354248,-0.390186309814
0.015,194.571862793,-0.401248931885
0.016,173.850183105,-0.411167144775
0.017,152.21015625,-0.419940948486
0.018,130.075634766,-0.427188873291
0.019,107.493713379,-0.432910919189
0.02,84.8882446289,-0.437488555908
0.021,61.8353759766,-0.440540313721
0.022,38.2880126953,-0.442066192627
0.023,15.235144043,-0.442447662354
0.024,-8.31221923828,-0.441303253174
0.025,-32.3069824219,-0.438632965088
0.026,-55.3833984375,-0.434818267822
0.027,-78.9072143555,-0.42947769165
0.028,-101.983630371,-0.422992706299
0.029,-124.094604492,-0.414981842041
0.03,-146.229125977,-0.405445098877
0.031,-168.340100098,-0.394382476807
0.032,-189.532727051,-0.38293838501
0.033,-209.783459473,-0.36958694458
0.034,-229.539697266,-0.355110168457
0.035,-248.377587891,-0.339851379395
0.036,-266.720983887,-0.323066711426
0.037,-285.087927246,-0.305137634277
0.038,-301.571081543,-0.286827087402
0.039,-317.088793945,-0.267753601074
0.04,-331.68815918,-0.246772766113
0.041,-345.345629883,-0.225791931152
0.042,-358.061206055,-0.203666687012
0.043,-369.340393066,-0.181541442871
0.044,-379.70123291,-0.157909393311
0.045,-388.649230957,-0.134258270264
0.046,-396.655334473,-0.110607147217
0.047,-403.248596191,-0.0858116149902
0.048,-408.40546875,-0.0613975524902
0.049,-412.643994141,-0.0362205505371
0.05,-414.998730469,-0.011043548584
0.051,-415.940625,0.0137519836426
0.052,-415.940625,0.0389099121094
0.053,-414.527783203,0.0637054443359
0.054,-411.702099609,0.0881195068359
0.055,-407.934521484,0.112915039063
0.056,-402.777648926,0.136947631836
0.057,-395.713439941,0.160598754883
0.058,-387.707336426,0.18424987793
0.059,-379.230285645,0.20637512207
0.06,-368.398498535,0.228481292725
0.061,-357.119311523,0.249080657959
0.062,-344.403735352,0.27006149292
0.063,-330.746264648,0.289516448975
0.064,-315.675952148,0.308208465576
0.065,-299.68729248,0.325374603271
0.066,-283.204138184,0.341777801514
0.067,-264.837194824,0.357799530029
0.068,-246.493798828,0.371532440186
0.069,-227.184960937,0.384883880615
0.07,-206.957775879,0.396709442139
0.071,-186.236096191,0.407390594482
0.072,-165.067016602,0.416927337646
0.073,-143.403442383,0.425300598145
0.074,-120.797973633,0.43140411377
0.075,-98.2160522461,0.436744689941
0.076,-76.0815307617,0.440559387207
0.077,-52.5577148437,0.442848205566
0.078,-29.0103515625,0.444374084473
0.079,-5.48653564453,0.443992614746
0.08,17.5898803711,0.442085266113
0.081,40.6427490234,0.438652038574
0.082,64.1901123047,0.434455871582
0.083,87.242980957,0.428733825684
0.084,110.319396973,0.421485900879
0.085,132.430371094,0.412731170654
0.086,154.564892578,0.402431488037
0.087,175.733972168,0.391368865967
0.088,196.455651855,0.379161834717
0.089,216.706384277,0.365047454834
0.09,236.933569336,0.350933074951
0.091,255.300512695,0.334529876709
0.092,273.172961426,0.317363739014
0.093,290.127062988,0.299434661865
0.094,306.610217285,0.280742645264
0.095,322.127929688,0.260524749756
0.096,335.785400391,0.239925384521
0.097,349.442871094,0.218200683594
0.098,361.6875,0.196075439453
0.099,372.02479248,0.173187255859
0.1,382.385632324,0.149917602539
0.101,391.333630371,0.125885009766
0.102,398.397839355,0.101852416992
0.103,404.520153809,0.0774383544922
0.104,409.229626465,0.0522613525391
0.105,412.973657227,0.0271034240723
0.106,414.857446289,0.0023078918457
0.107,416.270288086,-0.0228691101074
0.108,415.328393555,-0.0480461120605
0.109,412.973657227,-0.0728416442871
0.11,409.229626465,-0.0972557067871
0.111,404.991101074,-0.121669769287
0.112,398.868786621,-0.145702362061
0.113,391.804577637,-0.168952941895
0.114,383.327526855,-0.192222595215
0.115,373.437634277,-0.214347839355
0.116,362.629394531,-0.23609161377
0.117,351.326660156,-0.256309509277
0.118,337.669189453,-0.276908874512
0.119,323.540771484,-0.29598236084
0.12,308.023059082,-0.313911437988
0.121,292.010852051,-0.33145904541
0.122,274.585803223,-0.347099304199
0.123,256.242407227,-0.362720489502
0.124,237.875463867,-0.375690460205
0.125,217.648278809,-0.389041900635
0.126,196.926599121,-0.400104522705
0.127,176.204919434,-0.410404205322
0.128,154.564892578,-0.419178009033
0.129,132.430371094,-0.426425933838
0.13,109.848449707,-0.432147979736
0.131,87.242980957,-0.437107086182
0.132,63.7191650391,-0.440158843994
0.133,40.6427490234,-0.442066192627
0.134,17.5898803711,-0.442447662354
0.135,-5.48653564453,-0.4416847229
0.136,-29.0103515625,-0.439395904541
0.137,-52.5577148437,-0.435581207275
0.138,-76.0815307617,-0.430240631104
0.139,-98.6869995117,-0.423374176025
0.14,-121.268920898,-0.415744781494
0.141,-143.403442383,-0.40620803833
0.142,-165.537963867,-0.395908355713
0.143,-186.707043457,-0.384082794189
0.144,-207.428723145,-0.371112823486
0.145,-227.184960937,-0.35701751709
0.146,-246.493798828,-0.341758728027
0.147,-265.30814209,-0.325355529785
0.148,-282.733190918,-0.307426452637
0.149,-299.68729248,-0.289115905762
0.15,-315.205004883,-0.270042419434
0.151,-329.804370117,-0.249443054199
0.152,-343.932788086,-0.228843688965
0.153,-356.648364258,-0.206336975098
0.154,-367.92755127,-0.18383026123
0.155,-378.759338379,-0.160961151123
0.156,-387.707336426,-0.13692855835
0.157,-395.713439941,-0.113658905029
0.158,-402.777648926,-0.0888633728027
0.159,-408.40546875,-0.0644493103027
0.16,-412.643994141,-0.0392723083496
0.161,-414.998730469,-0.0140953063965
0.162,-416.411572266,0.0110816955566
0.163,-416.411572266,0.0362396240234
0.164,-415.469677734,0.06103515625
0.165,-412.643994141,0.08544921875
0.166,-408.876416016,0.110244750977
0.167,-403.719543457,0.13427734375
0.168,-397.126281738,0.157928466797
0.169,-389.120178223,0.181198120117
0.17,-380.172180176,0.204086303711
0.171,-369.811340332,0.225811004639
0.172,-358.53215332,0.247173309326
0.173,-345.816577148,0.267772674561
0.174,-331.68815918,0.287227630615
0.175,-317.559741211,0.306301116943
0.176,-301.571081543,0.323467254639
0.177,-285.087927246,0.340251922607
0.178,-267.191931152,0.355892181396
0.179,-248.377587891,0.370388031006
0.18,-229.539697266,0.383358001709
0.181,-209.312512207,0.395565032959
0.182,-188.59083252,0.406246185303
0.183,-167.869152832,0.415782928467
0.184,-145.758178711,0.424156188965
0.185,-123.152709961,0.431022644043
0.186,-100.570788574,0.436363220215
0.187,-77.9653198242,0.44017791748
0.188,-54.4415039062,0.442848205566
0.189,-31.3650878906,0.443992614746
0.19,-7.37032470703,0.443992614746
0.191,15.7060913086,0.44246673584
0.192,38.7589599609,0.439414978027
0.193,61.8353759766,0.435218811035
0.194,84.8882446289,0.429496765137
0.195,107.493713379,0.421867370605
0.196,130.075634766,0.413494110107
0.197,151.739208984,0.403575897217
0.198,173.37923584,0.392513275146
0.199,194.100915527,0.380306243896
0.2,214.822595215,0.36657333374
0.201,234.578833008,0.351696014404
0.202,253.416723633,0.336437225342
0.203,271.760119629,0.319271087646
0.204,288.714221191,0.301342010498
0.205,305.197375488,0.282649993896
0.206,320.244140625,0.262813568115
0.207,335.314453125,0.242214202881
0.208,348.030029297,0.220489501953
0.209,360.274658203,0.198364257813
0.21,371.082897949,0.175476074219
0.211,381.443737793,0.152587890625
0.212,389.920788574,0.128936767578
0.213,396.984997559,0.104522705078
0.214,403.578259277,0.0801086425781
0.215,407.816784668,0.0553131103516
0.216,412.031762695,0.030517578125
0.217,414.386499023,0.00459671020508
0.218,415.328393555,-0.0201988220215
0.219,414.857446289,-0.044994354248
0.22,412.973657227,-0.0697898864746
0.221,409.229626465,-0.0945854187012
0.222,405.46204834,-0.118999481201
0.223,399.810681152,-0.142650604248
0.224,392.746472168,-0.166664123535
0.225,384.269421387,-0.189170837402
0.226,374.379528809,-0.21167755127
0.227,364.018688965,-0.233421325684
0.228,352.268554688,-0.254402160645
0.229,338.611083984,-0.274238586426
0.23,324.953613281,-0.29369354248
0.231,309.435900879,-0.311622619629
0.232,293.423693848,-0.329170227051
0.233,275.99864502,-0.345191955566
0.234,258.597143555,-0.360069274902
0.235,239.75925293,-0.374546051025
0.236,219.979467773,-0.387134552002
0.237,199.752282715,-0.398960113525
0.238,179.030603027,-0.408878326416
0.239,157.390576172,-0.417652130127
0.24,135.256054687,-0.425281524658
0.241,113.145080566,-0.431385040283
0.242,90.0686645508,-0.436725616455
0.243,67.0157958984,-0.440158843994
0.244,43.9393798828,-0.442066192627
0.245,20.4155639648,-0.442447662354
0.246,-2.66085205078,-0.4416847229
0.247,-26.6556152344,-0.439777374268
0.248,-50.2029785156,-0.436344146729
0.249,-73.7267944336,-0.431003570557
0.25,-95.861315918,-0.424518585205
0.251,-118.466784668,-0.416507720947
0.252,-141.048706055,-0.40735244751
0.253,-162.712280273,-0.397052764893
0.254,-183.881359863,-0.385990142822
0.255,-204.603039551,-0.373020172119
0.256,-224.830224609,-0.358543395996
0.257,-243.668115234,-0.34366607666
0.258,-262.976953125,-0.326881408691
0.259,-280.849401855,-0.309715270996
0.26,-298.274450684,-0.291404724121
0.261,-313.792163086,-0.271949768066
0.262,-328.39152832,-0.252113342285
0.263,-343.46184082,-0.230751037598
0.264,-355.706469727,-0.209007263184
0.265,-367.456604004,-0.186500549316
0.266,-378.288391113,-0.163249969482
0.267,-387.23638916,-0.139980316162
0.268,-394.77154541,-0.115947723389
0.269,-401.835754395,-0.0915336608887
0.27,-407.487121582,-0.0671195983887
0.271,-412.173046875,-0.0423240661621
0.272,-414.998730469,-0.0167655944824
0.273,-416.411572266,0.00802993774414
0.274,-416.882519531,0.0331878662109
0.275,-415.469677734,0.0579833984375
0.276,-413.585888672,0.0827789306641
0.277,-410.289257812,0.107192993164
0.278,-405.132385254,0.131607055664
0.279,-398.539123535,0.155258178711
0.28,-391.003967285,0.178909301758
0.281,-382.526916504,0.201416015625
0.282,-372.16607666,0.223159790039
0.283,-360.863342285,0.244884490967
0.284,-348.171313477,0.265483856201
0.285,-334.513842773,0.285320281982
0.286,-319.914477539,0.304012298584
0.287,-303.925817871,0.321941375732
0.288,-287.442663574,0.338726043701
0.289,-270.017614746,0.354747772217
0.29,-251.203271484,0.3688621521
0.291,-231.894433594,0.382595062256
0.292,-212.138195801,0.394420623779
0.293,-192.358410645,0.40548324585
0.294,-170.694836426,0.414638519287
0.295,-148.583862305,0.423774719238
0.296,-126.44934082,0.430641174316
0.297,-104.338366699,0.436363220215
0.298,-81.7328979492,0.44017791748
0.299,-58.2090820312,0.443229675293
0.3,-34.1907714844,0.444374084473
0.301,-11.137902832,0.444374084473
0.302,12.4094604492,0.443229675293
0.303,35.9332763672,0.440559387207
0.304,59.4806396484,0.435981750488
0.305,82.5335083008,0.430641174316
0.306,105.138977051,0.423774719238
0.307,127.720898437,0.415019989014
0.308,149.855419922,0.405101776123
0.309,171.024499512,0.394420623779
0.31,191.746179199,0.381832122803
0.311,212.467858887,0.368480682373
0.312,232.22409668,0.35436630249
0.313,251.061987305,0.338344573975
0.314,269.405383301,0.321559906006
0.315,286.359484863,0.304012298584
0.316,303.313586426,0.284938812256
0.317,318.831298828,0.265102386475
0.318,333.430664063,0.24450302124
0.319,347.088134766,0.223541259766
0.32,359.332763672,0.201416015625
0.321,370.611950684,0.178909301758
0.322,380.501843262,0.155639648438
0.323,389.449841309,0.131607055664
0.324,397.455944824,0.107574462891
0.325,403.107312012,0.0827789306641
0.326,407.816784668,0.0579833984375
0.327,412.031762695,0.0328063964844
0.328,414.386499023,0.0084114074707
0.329,415.79934082,-0.017147064209
0.33,415.328393555,-0.0419425964355
0.331,413.444604492,-0.0671195983887
0.332,410.171520996,-0.0915336608887
0.333,405.932995605,-0.116329193115
0.334,400.752575684,-0.139980316162
0.335,394.159313965,-0.163631439209
0.336,385.682263184,-0.186882019043
0.337,376.263317871,-0.209007263184
0.338,365.431530762,-0.230751037598
0.339,353.681396484,-0.252113342285
0.34,340.965820313,-0.27271270752
0.341,326.837402344,-0.291786193848
0.342,311.319689941,-0.310096740723
0.343,295.30748291,-0.327262878418
0.344,278.353381348,-0.34366607666
0.345,260.009985352,-0.358924865723
0.346,241.643041992,-0.373020172119
0.347,222.334204102,-0.386371612549
0.348,201.636071777,-0.397434234619
0.349,180.91439209,-0.408115386963
0.35,159.7453125,-0.416889190674
0.351,138.081738281,-0.424900054932
0.352,115.499816895,-0.431003570557
0.353,92.8943481445,-0.435962677002
0.354,69.8414794922,-0.439777374268
0.355,46.2941162109,-0.442066192627
0.356,23.2412475586,-0.44282913208
0.357,-0.306115722656,-0.4416847229
0.358,-23.8299316406,-0.440158843994
0.359,-47.8482421875,-0.436344146729
0.36,-70.4301635742,-0.431385040283
0.361,-93.9775268555,-0.425281524658
0.362,-116.11204834,-0.417652130127
0.363,-138.693969727,-0.408878326416
0.364,-160.357543945,-0.398578643799
0.365,-181.997570801,-0.387134552002
0.366,-202.719250488,-0.374546051025
0.367,-222.946435547,-0.360069274902
0.368,-241.784326172,-0.34481048584
0.369,-261.093164062,-0.329170227051
0.37,-278.494665527,-0.312004089355
0.371,-295.919714355,-0.293312072754
0.372,-311.437426758,-0.274238586426
0.373,-326.978686523,-0.254402160645
0.374,-340.636157227,-0.233039855957
0.375,-353.822680664,-0.21167755127
0.376,-366.043762207,-0.189170837402
0.377,-376.875549316,-0.166282653809
0.378,-386.294494629,-0.143032073975
0.379,-394.300598145,-0.118618011475
0.38,-401.364807129,-0.0942039489746
0.381,-407.016174316,-0.0697898864746
0.382,-411.702099609,-0.0453758239746
0.383,-414.527783203,-0.0201988220215
0.384,-415.940625,0.00497817993164
0.385,-416.411572266,0.030517578125
0.386,-415.469677734,0.0556945800781
0.387,-413.114941406,0.0801086425781
0.388,-409.818310547,0.104904174805
0.389,-405.132385254,0.129318237305
0.39,-398.539123535,0.152587890625
0.391,-391.003967285,0.175857543945
0.392,-382.99786377,0.198745727539
0.393,-372.637023926,0.22087097168
0.394,-361.334289551,0.241832733154
0.395,-349.113208008,0.263195037842
0.396,-335.455737305,0.282649993896
0.397,-321.327319336,0.302104949951
0.398,-305.338659668,0.319652557373
0.399,-289.326452637,0.336818695068
0.4,-270.959509277,0.352458953857
0.401,-253.087060547,0.367336273193
0.402,-233.778222656,0.380687713623
0.403,-214.021984863,0.392513275146
0.404,-193.771252441,0.40433883667
0.405,-172.107678223,0.413875579834
0.406,-150.467651367,0.422630310059
0.407,-127.862182617,0.429496765137
0.408,-106.222155762,0.435218811035
0.409,-83.6166870117,0.439796447754
0.41,-60.0928710937,0.44246673584
0.411,-36.5455078125,0.443992614746
0.412,-13.4926391602,0.444374084473
0.413,10.0547241211,0.442848205566
0.414,33.5785400391,0.44017791748
0.415,56.6549560547,0.435981750488
0.416,79.707824707,0.430641174316
0.417,102.784240723,0.424156188965
0.418,125.366162109,0.415782928467
0.419,147.500683594,0.406246185303
0.42,168.693310547,0.395183563232
0.421,189.862390137,0.383358001709
0.422,210.584069824,0.369625091553
0.423,230.811254883,0.35551071167
0.424,249.649145508,0.339870452881
0.425,267.521594238,0.323467254639
0.426,284.946643066,0.30553817749
0.427,301.429797363,0.286464691162
0.428,316.947509766,0.267009735107
0.429,331.546875,0.246410369873
0.43,345.204345703,0.225811004639
0.431,357.448974609,0.203323364258
0.432,368.728161621,0.180816650391
0.433,379.089001465,0.157928466797
0.434,388.507946777,0.133895874023
0.435,396.043103027,0.10986328125
0.436,402.16541748,0.08544921875
0.437,407.345837402,0.06103515625
0.438,411.113415527,0.0358581542969
0.439,413.915551758,0.0107002258301
0.44,415.328393555,-0.014476776123
0.441,414.857446289,-0.0396537780762
0.442,412.973657227,-0.0640678405762
0.443,409.70057373,-0.0888633728027
0.444,405.932995605,-0.113277435303
0.445,400.281628418,-0.137310028076
0.446,393.688366699,-0.160961151123
0.447,385.682263184,-0.184211730957
0.448,376.263317871,-0.206718444824
0.449,365.902478027,-0.228462219238
0.45,354.623291016,-0.249443054199
0.451,341.907714844,-0.269660949707
0.452,328.250244141,-0.289497375488
0.453,312.732531738,-0.307426452637
0.454,296.720324707,-0.325355529785
0.455,279.766223145,-0.341377258301
0.456,262.36472168,-0.356636047363
0.457,243.99777832,-0.371494293213
0.458,224.217993164,-0.384082794189
0.459,203.990808105,-0.395908355713
0.46,183.269128418,-0.406589508057
0.461,161.629101562,-0.415744781494
0.462,140.436474609,-0.423374176025
0.463,117.854553223,-0.429859161377
0.464,95.2490844727,-0.435199737549
0.465,72.1962158203,-0.439014434814
0.466,49.1197998047,-0.441303253174
0.467,26.0433837891,-0.442066192627
0.468,2.99051513672,-0.4416847229
0.469,-20.5568481445,-0.439777374268
0.47,-44.0806640625,-0.436725616455
0.471,-67.1570800781,-0.43176651001
0.472,-90.2099487305,-0.426044464111
0.473,-113.286364746,-0.41841506958
0.474,-135.397338867,-0.409641265869
0.475,-157.531860352,-0.399723052979
0.476,-179.171887207,-0.388660430908
0.477,-200.36451416,-0.375690460205
0.478,-220.120751953,-0.361957550049
0.479,-239.900537109,-0.347099304199
0.48,-259.209375,-0.330696105957
0.481,-277.08182373,-0.313911437988
0.482,-294.977819824,-0.295600891113
0.483,-310.51907959,-0.276527404785
0.484,-325.565844727,-0.256309509277
0.485,-339.694262695,-0.235710144043
0.486,-352.880786133,-0.213584899902
0.487,-364.63092041,-0.191841125488
0.488,-375.46270752,-0.168952941895
0.489,-384.881652832,-0.144939422607
0.49,-392.887756348,-0.121669769287
0.491,-399.951965332,-0.0972557067871
0.492,-406.545227051,-0.0724601745605
0.493,-410.760205078,-0.047664642334
0.494,-414.056835937,-0.0228691101074
0.495,-415.940625,0.0023078918457
0.496,-416.411572266,0.0274848937988
0.497,-415.940625,0.0522613525391
0.498,-414.056835937,0.0774383544922
0.499,-410.760205078,0.101470947266
0.5,-405.60333252,0.125885009766
0.501,-399.010070801,0.149917602539
0.502,-391.945861816,0.173568725586
0.503,-383.468811035,0.196075439453
0.504,-373.578918457,0.21858215332
0.505,-362.276184082,0.240306854248
0.506,-350.526049805,0.261287689209
0.507,-336.868579102,0.28112411499
0.508,-322.740161133,0.299816131592
0.509,-307.22244873,0.31774520874
0.51,-291.210241699,0.334911346436
0.511,-273.785192871,0.350933074951
0.512,-255.441796875,0.365810394287
0.513,-236.132958984,0.379543304443
0.514,-216.353173828,0.391750335693
0.515,-196.596936035,0.40319442749
0.516,-175.404309082,0.413112640381
0.517,-153.293334961,0.421867370605
0.518,-130.687866211,0.42911529541
0.519,-109.047839355,0.434837341309
0.52,-85.9714233398,0.439033508301
0.521,-62.4476074219,0.44246673584
0.522,-39.3711914062,0.444374084473
0.523,-15.8473754883,0.444374084473
0.524,7.69998779297,0.44361114502
0.525,30.7528564453,0.440940856934
0.526,53.8292724609,0.437126159668
0.527,76.8821411133,0.43140411377
0.528,99.4876098633,0.424919128418
0.529,122.540478516,0.416927337646
0.53,144.675,0.407772064209
0.531,165.867626953,0.396709442139
0.532,187.036706543,0.384883880615
0.533,207.75838623,0.371532440186
0.534,227.985571289,0.357418060303
0.535,247.29440918,0.34215927124
0.536,265.661352539,0.325374603271
0.537,283.062854004,0.308208465576
0.538,300.016955566,0.289134979248
0.539,315.534667969,0.269680023193
0.54,330.604980469,0.249080657959
0.541,343.791503906,0.228481292725
