"Latest: Time (s)","Latest: Potential 2 (mV)","Latest: Potential 1 (V)","Latest: Current (A)"
0,-119.385131836,-0.912666320801,-0.289497375488
0.001,-120.797973633,-0.882148742676,-0.282249450684
0.002,-122.681762695,-0.855445861816,-0.275001525879
0.003,-124.094604492,-0.821113586426,-0.266990661621
0.004,-125.978393555,-0.790405273438,-0.259742736816
0.005,-127.391235352,-0.759887695313,-0.251731872559
0.006,-129.275024414,-0.729370117188,-0.244483947754
0.007,-130.687866211,-0.698852539063,-0.236473083496
0.008,-132.571655273,-0.664520263672,-0.228462219238
0.009,-133.513549805,-0.633811950684,-0.220069885254
0.01,-134.926391602,-0.599479675293,-0.212059020996
0.011,-136.339233398,-0.565147399902,-0.204048156738
0.012,-137.28112793,-0.538444519043,-0.19603729248
0.013,-138.693969727,-0.504112243652,-0.187644958496
0.014,-139.635864258,-0.469589233398,-0.178871154785
0.015,-140.577758789,-0.439071655273,-0.170860290527
0.016,-141.51965332,-0.400924682617,-0.162105560303
0.017,-142.461547852,-0.370407104492,-0.153713226318
0.018,-143.403442383,-0.332260131836,-0.144557952881
0.019,-144.345336914,-0.309181213379,-0.136165618896
0.02,-145.287231445,-0.271034240723,-0.127391815186
0.021,-145.758178711,-0.236701965332,-0.118618011475
0.022,-146.700073242,-0.202369689941,-0.109844207764
0.023,-147.641967773,-0.164031982422,-0.100688934326
0.024,-148.112915039,-0.133514404297,-0.0922966003418
0.025,-149.05480957,-0.0953674316406,-0.0831413269043
0.026,-149.05480957,-0.0686645507813,-0.0743675231934
0.027,-149.525756836,-0.030517578125,-0.0652122497559
0.028,-149.996704102,0.00400543212891,-0.0564384460449
0.029,-150.938598633,0.0383377075195,-0.0472831726074
0.03,-150.938598633,0.0764846801758,-0.0385093688965
0.031,-150.938598633,0.107002258301,-0.029354095459
0.032,-150.938598633,0.145149230957,-0.0198173522949
0.033,-151.409545898,0.17204284668,-0.0106620788574
0.034,-151.409545898,0.210189819336,-0.00188827514648
0.035,-151.409545898,0.240707397461,0.00726699829102
0.036,-151.409545898,0.275039672852,0.0164222717285
0.037,-150.938598633,0.313377380371,0.0251960754395
0.038,-150.938598633,0.347709655762,0.0347137451172
0.039,-150.938598633,0.382041931152,0.0434875488281
0.04,-150.938598633,0.412559509277,0.0522613525391
0.041,-150.938598633,0.446891784668,0.0617980957031
0.042,-150.467651367,0.477600097656,0.0701904296875
0.043,-149.996704102,0.511932373047,0.0797271728516
0.044,-149.525756836,0.542449951172,0.0885009765625
0.045,-149.05480957,0.580596923828,0.0972747802734
0.046,-149.05480957,0.615119934082,0.106430053711
0.047,-148.112915039,0.641822814941,0.115203857422
0.048,-147.171020508,0.679969787598,0.123977661133
0.049,-146.229125977,0.706672668457,0.132751464844
0.05,-145.758178711,0.737190246582,0.141525268555
0.051,-145.287231445,0.767707824707,0.149917602539
0.052,-143.874389648,0.806045532227,0.15869140625
0.053,-142.932495117,0.836563110352,0.167465209961
0.054,-141.990600586,0.863265991211,0.175476074219
0.055,-141.048706055,0.893783569336,0.18424987793
0.056,-140.577758789,0.924301147461,0.192260742188
0.057,-139.635864258,0.955009460449,0.200653076172
0.058,-138.223022461,0.981712341309,0.209045410156
0.059,-136.810180664,1.01222991943,0.217056274414
0.06,-135.868286133,1.04274749756,0.225811004639
0.061,-134.455444336,1.06563568115,0.23344039917
0.062,-133.042602539,1.10015869141,0.241832733154
0.063,-132.100708008,1.123046875,0.249080657959
0.064,-129.74597168,1.14974975586,0.25671005249
0.065,-128.333129883,1.17645263672,0.264339447021
0.066,-126.920288086,1.20315551758,0.271968841553
0.067,-125.036499023,1.22985839844,0.279598236084
0.068,-123.623657227,1.25293731689,0.286846160889
0.069,-121.739868164,1.27964019775,0.294094085693
0.07,-120.327026367,1.30634307861,0.301723480225
0.071,-118.466784668,1.32923126221,0.308589935303
0.072,-116.582995605,1.3521194458,0.315456390381
0.073,-115.170153809,1.37500762939,0.322322845459
0.074,-113.286364746,1.39808654785,0.328807830811
0.075,-111.402575684,1.42097473145,0.335292816162
0.076,-109.518786621,1.44004821777,0.341777801514
0.077,-107.634997559,1.46293640137,0.348644256592
0.078,-105.28026123,1.47819519043,0.354747772217
0.079,-103.396472168,1.50108337402,0.360469818115
0.08,-101.512683105,1.52015686035,0.366191864014
0.081,-98.6869995117,1.53923034668,0.372676849365
0.082,-96.3322631836,1.56230926514,0.378398895264
0.083,-94.4484741211,1.5775680542,0.383739471436
0.084,-92.093737793,1.59664154053,0.389461517334
0.085,-90.2099487305,1.61190032959,0.394420623779
0.086,-87.3842651367,1.62715911865,0.400142669678
0.087,-85.5004760742,1.64623260498,0.405101776123
0.088,-82.6747924805,1.65767669678,0.409679412842
0.089,-80.791003418,1.67293548584,0.414638519287
0.09,-78.4362670898,1.6881942749,0.419216156006
0.091,-76.0815307617,1.6996383667,0.423774719238
0.092,-73.255847168,1.71127319336,0.42797088623
0.093,-70.4301635742,1.72271728516,0.432167053223
0.094,-68.0989746094,1.73797607422,0.435981750488
0.095,-65.7442382812,1.74942016602,0.439796447754
0.096,-63.3895019531,1.75704956055,0.443229675293
0.097,-60.5638183594,1.76849365234,0.447044372559
0.098,-57.7381347656,1.77612304688,0.450477600098
0.099,-54.9124511719,1.78756713867,0.453910827637
0.1,-52.5577148437,1.7951965332,0.456581115723
0.101,-49.73203125,1.79901123047,0.459251403809
0.102,-46.9063476562,1.806640625,0.462303161621
0.103,-44.5516113281,1.81427001953,0.464973449707
0.104,-41.7259277344,1.8180847168,0.467262268066
0.105,-38.429296875,1.82571411133,0.469551086426
0.106,-36.0745605469,1.82571411133,0.471839904785
0.107,-33.7198242187,1.82952880859,0.473747253418
0.108,-30.894140625,1.83334350586,0.474891662598
0.109,-27.5975097656,1.83334350586,0.47679901123
0.11,-25.2427734375,1.83715820313,0.478324890137
0.111,-22.4170898437,1.83715820313,0.479469299316
0.112,-19.6149536133,1.83715820313,0.48023223877
0.113,-16.7892700195,1.83715820313,0.481758117676
0.114,-13.9635864258,1.82952880859,0.481758117676
0.115,-11.137902832,1.83334350586,0.482521057129
0.116,-7.84127197266,1.83334350586,0.482902526855
0.117,-5.48653564453,1.82571411133,0.482902526855
0.118,-2.18990478516,1.82571411133,0.483665466309
0.119,0.635778808594,1.8180847168,0.483283996582
0.12,3.46146240234,1.81427001953,0.482902526855
0.121,6.28714599609,1.81427001953,0.482521057129
0.122,9.11282958984,1.79901123047,0.481758117676
0.123,11.467565918,1.7951965332,0.480995178223
0.124,14.2932495117,1.78756713867,0.479850769043
0.125,17.1189331055,1.77993774414,0.478706359863
0.126,20.4155639648,1.76849365234,0.477561950684
0.127,22.770300293,1.75704956055,0.476036071777
0.128,26.0433837891,1.74942016602,0.474510192871
0.129,28.3981201172,1.73797607422,0.472221374512
0.13,31.2238037109,1.72653198242,0.470314025879
0.131,34.0494873047,1.71508789063,0.468406677246
0.132,37.3461181641,1.6996383667,0.46573638916
0.133,40.1718017578,1.6881942749,0.463066101074
0.134,42.5265380859,1.68056488037,0.460777282715
0.135,45.3522216797,1.65767669678,0.457725524902
0.136,48.1779052734,1.64623260498,0.455055236816
0.137,51.0035888672,1.63097381592,0.451622009277
0.138,53.8292724609,1.61571502686,0.448570251465
0.139,56.1840087891,1.60045623779,0.445137023926
0.14,58.5387451172,1.5775680542,0.44132232666
0.141,60.8934814453,1.5661239624,0.437507629395
0.142,63.7191650391,1.54304504395,0.433311462402
0.143,66.0739013672,1.52778625488,0.429496765137
0.144,68.4286376953,1.50871276855,0.425300598145
0.145,71.2543212891,1.4820098877,0.420341491699
0.146,73.6090576172,1.46293640137,0.415782928467
0.147,75.940246582,1.44386291504,0.411205291748
0.148,78.7659301758,1.42097473145,0.406246185303
0.149,81.5916137695,1.40190124512,0.401668548584
0.15,83.475402832,1.37500762939,0.396709442139
0.151,86.3010864258,1.35593414307,0.39098739624
0.152,88.6558227539,1.33304595947,0.385646820068
0.153,91.010559082,1.30634307861,0.380306243896
0.154,93.3652954102,1.28726959229,0.374584197998
0.155,95.2490844727,1.25675201416,0.368480682373
0.156,97.1328735352,1.2336730957,0.362758636475
0.157,99.0166625977,1.20315551758,0.35665512085
0.158,100.90045166,1.18026733398,0.350551605225
0.159,103.255187988,1.16119384766,0.343685150146
0.16,105.138977051,1.12686157227,0.337581634521
0.161,107.493713379,1.10397338867,0.33109664917
0.162,109.377502441,1.06945037842,0.324230194092
0.163,111.261291504,1.04656219482,0.316982269287
0.164,113.145080566,1.0160446167,0.310497283936
0.165,115.028869629,0.985527038574,0.303630828857
0.166,116.912658691,0.958824157715,0.296382904053
0.167,118.796447754,0.92830657959,0.289134979248
0.168,120.209289551,0.897598266602,0.281887054443
0.169,122.093078613,0.867080688477,0.274257659912
0.17,123.953320312,0.836563110352,0.266628265381
0.171,125.366162109,0.809860229492,0.259380340576
0.172,126.779003906,0.775527954102,0.251750946045
0.173,128.191845703,0.744819641113,0.244121551514
0.174,129.133740234,0.710487365723,0.235729217529
0.175,131.017529297,0.679969787598,0.228099822998
0.176,131.959423828,0.649452209473,0.2197265625
0.177,133.843212891,0.615119934082,0.211715698242
0.178,134.785107422,0.588226318359,0.203323364258
0.179,135.727001953,0.553894042969,0.194931030273
0.18,136.668896484,0.519561767578,0.186920166016
0.181,138.081738281,0.481414794922,0.178527832031
0.182,139.494580078,0.450706481934,0.16975402832
0.183,140.907421875,0.420188903809,0.161361694336
0.184,141.849316406,0.385856628418,0.152969360352
0.185,142.791210937,0.351524353027,0.143814086914
0.186,143.733105469,0.317192077637,0.13542175293
0.187,144.675,0.282669067383,0.126647949219
0.188,145.616894531,0.244522094727,0.117874145508
0.189,145.616894531,0.217819213867,0.109100341797
0.19,146.087841797,0.179672241211,0.0999450683594
0.191,147.029736328,0.145149230957,0.0911712646484
0.192,147.500683594,0.110816955566,0.0820159912109
0.193,147.971630859,0.0802993774414,0.0732421875
0.194,148.442578125,0.0421524047852,0.0640869140625
0.195,148.913525391,0.00400543212891,0.0553131103516
0.196,148.913525391,-0.0267028808594,0.0461578369141
0.197,149.384472656,-0.06103515625,0.0373840332031
0.198,149.855419922,-0.0953674316406,0.0278663635254
0.199,150.326367187,-0.129699707031,0.0190925598145
0.2,150.326367187,-0.164031982422,0.00955581665039
0.201,150.326367187,-0.198554992676,0.000782012939453
0.202,150.326367187,-0.236701965332,-0.00837326049805
0.203,150.326367187,-0.267219543457,-0.017147064209
0.204,150.326367187,-0.297737121582,-0.0263023376465
0.205,149.855419922,-0.336074829102,-0.035457611084
0.206,149.384472656,-0.366592407227,-0.0446128845215
0.207,148.913525391,-0.400924682617,-0.0533866882324
0.208,148.442578125,-0.435256958008,-0.0625419616699
0.209,148.442578125,-0.469589233398,-0.0716972351074
0.21,147.500683594,-0.500297546387,-0.0800895690918
0.211,147.500683594,-0.534629821777,-0.0892448425293
0.212,146.558789062,-0.565147399902,-0.0984001159668
0.213,145.616894531,-0.595664978027,-0.107173919678
0.214,145.145947266,-0.629997253418,-0.115566253662
0.215,144.675,-0.660705566406,-0.1247215271
0.216,144.204052734,-0.698852539063,-0.133113861084
0.217,142.791210937,-0.725555419922,-0.141887664795
0.218,142.320263672,-0.759887695313,-0.150279998779
0.219,141.378369141,-0.790405273438,-0.15905380249
0.22,140.436474609,-0.81729888916,-0.167427062988
0.221,139.494580078,-0.851631164551,-0.175819396973
0.222,138.552685547,-0.882148742676,-0.184211730957
0.223,137.13984375,-0.912666320801,-0.192604064941
0.224,135.727001953,-0.93936920166,-0.200996398926
0.225,134.785107422,-0.966262817383,-0.209007263184
0.226,133.843212891,-1.00059509277,-0.217018127441
0.227,132.430371094,-1.02348327637,-0.225028991699
0.228,131.017529297,-1.05400085449,-0.233039855957
0.229,129.6046875,-1.08070373535,-0.240669250488
0.23,128.191845703,-1.10759735107,-0.248680114746
0.231,126.779003906,-1.13430023193,-0.256309509277
0.232,125.837109375,-1.16100311279,-0.263557434082
0.233,124.424267578,-1.19533538818,-0.27156829834
0.234,122.540478516,-1.21440887451,-0.278816223145
0.235,121.151184082,-1.24111175537,-0.286064147949
0.236,119.26739502,-1.26800537109,-0.292930603027
0.237,117.854553223,-1.28707885742,-0.300178527832
0.238,116.441711426,-1.31378173828,-0.30704498291
0.239,114.086975098,-1.33666992188,-0.314292907715
0.24,112.203186035,-1.35955810547,-0.320777893066
0.241,110.319396973,-1.38244628906,-0.327262878418
0.242,108.43560791,-1.40151977539,-0.33374786377
0.243,106.551818848,-1.42841339111,-0.340232849121
0.244,104.19708252,-1.44748687744,-0.346717834473
0.245,102.313293457,-1.46656036377,-0.352821350098
0.246,99.9585571289,-1.48944854736,-0.358543395996
0.247,98.0747680664,-1.50470733643,-0.365009307861
0.248,96.6619262695,-1.52759552002,-0.370349884033
0.249,94.778137207,-1.53903961182,-0.376453399658
0.25,92.4234008789,-1.55811309814,-0.381412506104
0.251,90.0686645508,-1.57737731934,-0.387516021729
0.252,88.1848754883,-1.5926361084,-0.392093658447
0.253,85.8301391602,-1.61170959473,-0.397434234619
0.254,83.9463500977,-1.62696838379,-0.402393341064
0.255,81.5916137695,-1.63841247559,-0.40735244751
0.256,79.2368774414,-1.65748596191,-0.412311553955
0.257,76.8821411133,-1.66893005371,-0.416889190674
0.258,74.5274047852,-1.68418884277,-0.421085357666
0.259,72.6671630859,-1.69563293457,-0.425662994385
0.26,69.8414794922,-1.70707702637,-0.42947769165
0.261,67.4867431641,-1.72233581543,-0.434436798096
0.262,65.1320068359,-1.7261505127,-0.437870025635
0.263,62.3063232422,-1.74160003662,-0.4416847229
0.264,59.9515869141,-1.74922943115,-0.445117950439
0.265,57.5968505859,-1.75685882568,-0.448551177979
0.266,54.7711669922,-1.76830291748,-0.451602935791
0.267,51.9454833984,-1.77211761475,-0.45503616333
0.268,48.6488525391,-1.77974700928,-0.457706451416
0.269,45.8231689453,-1.78737640381,-0.460758209229
0.27,42.9974853516,-1.78737640381,-0.463047027588
0.271,40.1718017578,-1.79500579834,-0.465335845947
0.272,36.8751708984,-1.79882049561,-0.46724319458
0.273,33.5785400391,-1.80263519287,-0.469532012939
0.274,30.7528564453,-1.8102645874,-0.471439361572
0.275,27.9271728516,-1.8102645874,-0.472965240479
0.276,25.1250366211,-1.8102645874,-0.474491119385
0.277,22.2993530273,-1.8102645874,-0.475635528564
0.278,19.002722168,-1.8102645874,-0.476779937744
0.279,16.1770385742,-1.81407928467,-0.477924346924
0.28,13.3513549805,-1.8102645874,-0.478687286377
0.281,10.9966186523,-1.8102645874,-0.479068756104
0.282,8.17093505859,-1.8102645874,-0.47945022583
0.283,5.34525146484,-1.80644989014,-0.479831695557
0.284,2.51956787109,-1.80263519287,-0.480213165283
0.285,0.164831542969,-1.79882049561,-0.480213165283
0.286,-2.66085205078,-1.79119110107,-0.479831695557
0.287,-5.48653564453,-1.79119110107,-0.47945022583
0.288,-8.31221923828,-1.78356170654,-0.478687286377
0.289,-11.137902832,-1.77593231201,-0.47830581665
0.29,-14.4345336914,-1.77211761475,-0.477161407471
0.291,-17.2602172852,-1.76067352295,-0.476398468018
0.292,-20.0859008789,-1.75304412842,-0.475254058838
0.293,-22.8880371094,-1.74541473389,-0.473728179932
0.294,-25.7137207031,-1.73397064209,-0.471820831299
0.295,-28.5394042969,-1.7261505127,-0.470294952393
0.296,-31.3650878906,-1.7147064209,-0.468769073486
0.297,-34.1907714844,-1.69944763184,-0.466480255127
0.298,-36.5455078125,-1.6918182373,-0.464191436768
0.299,-38.9002441406,-1.67655944824,-0.461902618408
0.3,-42.196875,-1.66511535645,-0.459232330322
0.301,-45.0225585937,-1.64604187012,-0.45618057251
0.302,-47.3772949219,-1.63078308105,-0.453128814697
0.303,-50.2029785156,-1.61933898926,-0.450458526611
0.304,-52.5577148437,-1.60026550293,-0.447025299072
0.305,-54.9124511719,-1.58500671387,-0.443592071533
0.306,-58.2090820312,-1.56574249268,-0.440158843994
0.307,-60.5638183594,-1.55048370361,-0.436344146729
0.308,-63.3895019531,-1.53522491455,-0.432529449463
0.309,-65.7442382812,-1.51615142822,-0.428714752197
0.31,-68.0989746094,-1.49326324463,-0.424518585205
0.311,-71.3720581055,-1.47800445557,-0.420322418213
0.312,-73.7267944336,-1.45511627197,-0.415744781494
0.313,-76.5524780273,-1.43604278564,-0.411548614502
0.314,-78.4362670898,-1.41296386719,-0.40620803833
0.315,-80.3200561523,-1.39007568359,-0.401630401611
0.316,-83.1457397461,-1.37100219727,-0.396289825439
0.317,-85.5004760742,-1.34429931641,-0.391330718994
0.318,-87.8552124023,-1.32522583008,-0.386371612549
0.319,-89.7390014648,-1.29852294922,-0.38064956665
0.32,-92.093737793,-1.27563476563,-0.374927520752
0.321,-94.4484741211,-1.25255584717,-0.36958694458
0.322,-96.3322631836,-1.22585296631,-0.363483428955
0.323,-99.1579467773,-1.19915008545,-0.357398986816
0.324,-101.512683105,-1.17626190186,-0.351295471191
0.325,-103.396472168,-1.14574432373,-0.345191955566
0.326,-105.28026123,-1.11904144287,-0.339088439941
0.327,-107.164050293,-1.08833312988,-0.332221984863
0.328,-109.518786621,-1.06925964355,-0.325736999512
0.329,-111.402575684,-1.03874206543,-0.318870544434
0.33,-113.286364746,-1.0082244873,-0.312385559082
0.331,-114.699206543,-0.981521606445,-0.305519104004
0.332,-116.582995605,-0.954818725586,-0.298271179199
0.333,-117.995837402,-0.927925109863,-0.291023254395
0.334,-120.327026367,-0.889778137207,-0.28377532959
0.335,-121.739868164,-0.863075256348,-0.276527404785
0.336,-123.152709961,-0.832557678223,-0.268898010254
0.337,-125.036499023,-0.802040100098,-0.261650085449
0.338,-126.44934082,-0.771331787109,-0.254020690918
0.339,-128.333129883,-0.740814208984,-0.246391296387
0.34,-130.216918945,-0.710296630859,-0.238380432129
0.341,-132.100708008,-0.675964355469,-0.230369567871
0.342,-133.513549805,-0.645446777344,-0.22274017334
0.343,-134.926391602,-0.614738464355,-0.214347839355
0.344,-136.339233398,-0.580406188965,-0.205955505371
0.345,-137.752075195,-0.54988861084,-0.197944641113
0.346,-138.693969727,-0.515556335449,-0.189552307129
0.347,-139.635864258,-0.481224060059,-0.181159973145
0.348,-140.577758789,-0.45051574707,-0.172386169434
0.349,-141.51965332,-0.412368774414,-0.163631439209
0.35,-142.461547852,-0.385665893555,-0.155239105225
0.351,-143.403442383,-0.347518920898,-0.14684677124
0.352,-144.345336914,-0.320625305176,-0.138072967529
0.353,-144.81628418,-0.28247833252,-0.129680633545
0.354,-145.758178711,-0.248146057129,-0.120525360107
0.355,-146.229125977,-0.217628479004,-0.111751556396
0.356,-147.171020508,-0.175666809082,-0.102977752686
0.357,-148.112915039,-0.144958496094,-0.0942039489746
0.358,-148.583862305,-0.110626220703,-0.0854301452637
0.359,-148.583862305,-0.0762939453125,-0.0762748718262
0.36,-149.05480957,-0.0419616699219,-0.0675010681152
0.361,-149.525756836,-0.00743865966797,-0.0587272644043
0.362,-149.996704102,0.023078918457,-0.0499534606934
0.363,-149.996704102,0.0650405883789,-0.0404167175293
0.364,-149.996704102,0.0955581665039,-0.0316429138184
0.365,-149.996704102,0.13370513916,-0.0221061706543
0.366,-149.996704102,0.160598754883,-0.0133323669434
0.367,-149.996704102,0.194931030273,-0.00455856323242
0.368,-149.996704102,0.23307800293,0.00459671020508
0.369,-149.996704102,0.26741027832,0.013370513916
0.37,-149.525756836,0.301742553711,0.0225257873535
0.371,-149.525756836,0.332450866699,0.0312805175781
0.372,-149.525756836,0.370597839355,0.0408172607422
0.373,-149.525756836,0.40111541748,0.0495910644531
0.374,-149.525756836,0.435447692871,0.0583648681641
0.375,-149.05480957,0.469970703125,0.067138671875
0.376,-148.583862305,0.50048828125,0.0759124755859
0.377,-148.112915039,0.538635253906,0.0850677490234
0.378,-147.641967773,0.565338134766,0.0934600830078
0.379,-147.641967773,0.603485107422,0.102615356445
0.38,-146.700073242,0.630378723145,0.111389160156
0.381,-145.758178711,0.664710998535,0.120162963867
0.382,-145.287231445,0.69522857666,0.128936767578
0.383,-144.345336914,0.729560852051,0.137710571289
