"Latest: Time (s)","Latest: Potential 2 (mV)","Latest: Potential 1 (V)","Latest: Current (A)"
0,-171.165783691,-0.931739807129,-0.250587463379
0.001,-179.171887207,-0.866889953613,-0.239524841309
0.002,-183.881359863,-0.805854797363,-0.228080749512
0.003,-189.061779785,-0.740814208984,-0.216636657715
0.004,-194.713146973,-0.675964355469,-0.204811096191
0.005,-200.835461426,-0.61092376709,-0.192985534668
0.006,-206.957775879,-0.542259216309,-0.179634094238
0.007,-211.667248535,-0.481224060059,-0.167427062988
0.008,-216.824121094,-0.408554077148,-0.153713226318
0.009,-220.591699219,-0.336074829102,-0.140361785889
0.01,-223.888330078,-0.271034240723,-0.127010345459
0.011,-226.714013672,-0.198554992676,-0.113277435303
0.012,-230.010644531,-0.133514404297,-0.0995445251465
0.013,-233.307275391,-0.06103515625,-0.0854301452637
0.014,-236.132958984,0.0116348266602,-0.0713157653809
0.015,-238.487695312,0.0764846801758,-0.0568199157715
0.016,-240.842431641,0.152969360352,-0.0419425964355
0.017,-243.197167969,0.217819213867,-0.0274467468262
0.018,-243.668115234,0.286483764648,-0.0125694274902
0.019,-244.610009766,0.359153747559,0.00154495239258
0.02,-245.551904297,0.424003601074,0.0168037414551
0.021,-245.551904297,0.496673583984,0.0316619873047
0.022,-245.080957031,0.5615234375,0.0461578369141
0.023,-244.610009766,0.630378723145,0.06103515625
0.024,-242.726220703,0.69522857666,0.0751495361328
0.025,-241.784326172,0.75626373291,0.0900268554688
0.026,-239.900537109,0.825119018555,0.104141235352
0.027,-237.545800781,0.882339477539,0.118255615234
0.028,-234.720117187,0.947380065918,0.132369995117
0.029,-231.894433594,1.0046005249,0.146102905273
0.03,-228.126855469,1.06563568115,0.15983581543
0.031,-226.243066406,1.123046875,0.173187255859
0.032,-223.417382812,1.17645263672,0.186538696289
0.033,-219.178857422,1.22985839844,0.199508666992
0.034,-215.411279297,1.28345489502,0.212478637695
0.035,-211.667248535,1.32923126221,0.224685668945
0.036,-208.370617676,1.38263702393,0.237636566162
0.037,-203.190197754,1.42478942871,0.249462127686
0.038,-197.067883301,1.4705657959,0.261287689209
0.039,-189.532727051,1.51252746582,0.272350311279
0.04,-180.113781738,1.55467987061,0.28341293335
0.041,-145.287231445,1.59282684326,0.290660858154
0.042,-117.053942871,1.63097381592,0.297145843506
0.043,-111.402575684,1.66149139404,0.303630828857
0.044,-113.286364746,1.69582366943,0.310497283936
0.045,-111.873522949,1.72653198242,0.316982269287
0.046,-108.105944824,1.74942016602,0.323848724365
0.047,-108.57689209,1.77993774414,0.32995223999
0.048,-102.454577637,1.79901123047,0.336055755615
0.049,-92.093737793,1.8180847168,0.340633392334
0.05,-84.558581543,1.83715820313,0.345973968506
0.051,-85.0295288086,1.84860229492,0.350933074951
0.052,-82.2038452148,1.85623168945,0.355892181396
0.053,-76.0815307617,1.87168121338,0.360469818115
0.054,-68.0989746094,1.87168121338,0.364284515381
0.055,-55.3833984375,1.87549591064,0.366954803467
0.056,-44.5516113281,1.87931060791,0.369243621826
0.057,-38.9002441406,1.87549591064,0.371913909912
0.058,-34.1907714844,1.87168121338,0.373439788818
0.059,-26.6556152344,1.86786651611,0.374965667725
0.06,-20.5568481445,1.85241699219,0.376110076904
0.061,-12.0797973633,1.84097290039,0.376491546631
0.062,-1.24801025391,1.82571411133,0.376491546631
0.063,6.75809326172,1.806640625,0.375347137451
0.064,17.1189331055,1.79138183594,0.374202728271
0.065,27.4562255859,1.76086425781,0.372295379639
0.066,39.7008544922,1.73797607422,0.369243621826
0.067,51.9454833984,1.71127319336,0.365810394287
0.068,63.7191650391,1.67675018311,0.361614227295
0.069,72.1962158203,1.65004730225,0.357036590576
0.07,79.2368774414,1.61571502686,0.352077484131
0.071,88.1848754883,1.57375335693,0.346355438232
0.072,96.1909790039,1.53923034668,0.340251922607
0.073,104.668029785,1.49726867676,0.334148406982
0.074,114.557922363,1.45149230957,0.326519012451
0.075,123.953320312,1.40953063965,0.31888961792
0.076,130.546582031,1.35974884033,0.310878753662
0.077,136.197949219,1.31397247314,0.302486419678
0.078,144.204052734,1.26056671143,0.293712615967
0.079,154.564892578,1.20315551758,0.283794403076
0.08,163.512890625,1.15356445313,0.273494720459
0.081,169.164257812,1.09634399414,0.263195037842
0.082,174.792077637,1.03511810303,0.252513885498
0.083,180.91439209,0.974082946777,0.241069793701
0.084,187.978601074,0.91667175293,0.230007171631
0.085,192.68807373,0.85563659668,0.217437744141
0.086,195.98470459,0.79460144043,0.205993652344
0.087,198.339440918,0.72193145752,0.193786621094
0.088,200.694177246,0.664710998535,0.18196105957
0.089,202.577966309,0.592041015625,0.169372558594
0.09,204.932702637,0.527191162109,0.157165527344
0.091,206.345544434,0.462341308594,0.144577026367
0.092,208.229333496,0.389671325684,0.131988525391
0.093,210.584069824,0.324821472168,0.119018554688
0.094,212.938806152,0.248336791992,0.106048583984
0.095,215.29354248,0.183486938477,0.0930786132813
0.096,217.177331543,0.114631652832,0.0797271728516
0.097,219.037573242,0.0421524047852,0.0667572021484
0.098,220.921362305,-0.030517578125,0.0530242919922
0.099,222.334204102,-0.0991821289063,0.0400543212891
0.1,223.747045898,-0.168037414551,0.0259590148926
0.101,225.159887695,-0.240516662598,0.0126075744629
0.102,226.101782227,-0.309181213379,-0.00112533569336
0.103,226.101782227,-0.378036499023,-0.0148582458496
0.104,226.101782227,-0.45051574707,-0.0285911560059
0.105,226.101782227,-0.515556335449,-0.0423240661621
0.106,225.159887695,-0.580406188965,-0.0556755065918
0.107,224.217993164,-0.649261474609,-0.069408416748
0.108,221.863256836,-0.714111328125,-0.0823783874512
0.109,219.037573242,-0.778961181641,-0.0957298278809
0.11,215.764489746,-0.84400177002,-0.108699798584
0.111,212.467858887,-0.901222229004,-0.121669769287
0.112,211.525964355,-0.966262817383,-0.134258270264
0.113,211.05501709,-1.02348327637,-0.14684677124
0.114,210.584069824,-1.08070373535,-0.159816741943
0.115,209.642175293,-1.1381149292,-0.17276763916
0.116,210.584069824,-1.19152069092,-0.18497467041
0.117,208.229333496,-1.2487411499,-0.197944641113
0.118,203.048913574,-1.29852294922,-0.209770202637
0.119,193.629968262,-1.34429931641,-0.22159576416
0.12,184.681970215,-1.39389038086,-0.232276916504
0.121,178.088708496,-1.43985748291,-0.242958068848
0.122,172.908288574,-1.48181915283,-0.252876281738
0.123,168.693310547,-1.52378082275,-0.263175964355
0.124,164.925732422,-1.55811309814,-0.273094177246
0.125,160.687207031,-1.60026550293,-0.282249450684
0.126,154.564892578,-1.63078308105,-0.291404724121
0.127,146.087841797,-1.66511535645,-0.300178527832
0.128,137.13984375,-1.69563293457,-0.30818939209
0.129,147.029736328,-1.7261505127,-0.31810760498
0.13,139.965527344,-1.74541473389,-0.325736999512
0.131,122.540478516,-1.77211761475,-0.332984924316
0.132,108.906555176,-1.78737640381,-0.339088439941
0.133,101.371398926,-1.80263519287,-0.345191955566
0.134,93.8362426758,-1.8217086792,-0.350532531738
0.135,84.4172973633,-1.82933807373,-0.355491638184
0.136,74.0800048828,-1.84078216553,-0.359306335449
0.137,63.7191650391,-1.84841156006,-0.363101959229
0.138,52.8873779297,-1.85222625732,-0.366153717041
0.139,45.8231689453,-1.85222625732,-0.3684425354
0.14,41.1136962891,-1.85604095459,-0.371112823486
0.141,33.5785400391,-1.84841156006,-0.372638702393
0.142,29.8109619141,-1.84459686279,-0.374927520752
0.143,25.5959838867,-1.833152771,-0.376071929932
0.144,17.1189331055,-1.81789398193,-0.376834869385
0.145,8.17093505859,-1.80644989014,-0.376834869385
0.146,-1.24801025391,-1.79119110107,-0.376834869385
0.147,-9.25411376953,-1.76830291748,-0.376071929932
0.148,-17.7311645508,-1.74922943115,-0.374546051025
0.149,-27.1265625,-1.7261505127,-0.373401641846
0.15,-37.0164550781,-1.69563293457,-0.370349884033
0.151,-47.3772949219,-1.66893005371,-0.367298126221
0.152,-57.2671875,-1.63078308105,-0.363483428955
0.153,-65.7442382812,-1.59645080566,-0.359306335449
0.154,-73.7267944336,-1.56192779541,-0.35472869873
0.155,-85.9714233398,-1.52378082275,-0.349388122559
0.156,-95.861315918,-1.4856338501,-0.34366607666
0.157,-104.809313965,-1.43985748291,-0.336799621582
0.158,-113.286364746,-1.39389038086,-0.329933166504
0.159,-121.739868164,-1.34811401367,-0.322303771973
0.16,-129.74597168,-1.30233764648,-0.314674377441
0.161,-137.28112793,-1.2487411499,-0.30590057373
0.162,-144.81628418,-1.19915008545,-0.29712677002
0.163,-151.880493164,-1.14192962646,-0.287971496582
0.164,-159.415649414,-1.08070373535,-0.278053283691
0.165,-166.008911133,-1.02729797363,-0.268135070801
0.166,-172.107678223,-0.970077514648,-0.257453918457
0.167,-178.229992676,-0.908851623535,-0.246772766113
0.168,-183.881359863,-0.847816467285,-0.235328674316
0.169,-189.532727051,-0.782775878906,-0.224266052246
0.17,-195.184094238,-0.721740722656,-0.212059020996
0.171,-200.36451416,-0.653076171875,-0.199851989746
0.172,-205.073986816,-0.588035583496,-0.18726348877
0.173,-210.254406738,-0.52318572998,-0.174674987793
0.174,-214.492932129,-0.454330444336,-0.16134262085
0.175,-218.707910156,-0.38948059082,-0.14799118042
0.176,-222.946435547,-0.31681060791,-0.13463973999
0.177,-226.243066406,-0.248146057129,-0.121288299561
0.178,-229.06875,-0.179481506348,-0.107173919678
0.179,-231.894433594,-0.106811523438,-0.0934410095215
0.18,-234.249169922,-0.0419616699219,-0.0793266296387
0.181,-236.132958984,0.0307083129883,-0.0644493103027
0.182,-238.016748047,0.103187561035,-0.0507164001465
0.183,-239.429589844,0.17204284668,-0.0362205505371
0.184,-240.371484375,0.244522094727,-0.0217247009277
0.185,-240.842431641,0.309562683105,-0.0068473815918
0.186,-241.784326172,0.382041931152,0.00802993774414
0.187,-242.726220703,0.446891784668,0.0217628479004
0.188,-243.197167969,0.515747070313,0.0370025634766
0.189,-242.726220703,0.584411621094,0.0511169433594
0.19,-241.784326172,0.645637512207,0.0659942626953
0.191,-240.842431641,0.714302062988,0.0801086425781
0.192,-240.371484375,0.779342651367,0.0949859619141
0.193,-239.429589844,0.844192504883,0.109100341797
0.194,-236.132958984,0.905227661133,0.12321472168
0.195,-227.655908203,0.96263885498,0.136566162109
0.196,-218.236962891,1.0274887085,0.149154663086
0.197,-202.719250488,1.08489990234,0.161361694336
0.198,-191.887463379,1.14212036133,0.172424316406
0.199,-188.119885254,1.19934082031,0.183868408203
0.2,-185.765148926,1.24912261963,0.194549560547
0.201,-182.468518066,1.30634307861,0.205612182617
0.202,-178.229992676,1.35593414307,0.215911865234
0.203,-173.049572754,1.40190124512,0.226955413818
0.204,-168.811047363,1.4476776123,0.236492156982
0.205,-165.537963867,1.48963928223,0.246410369873
0.206,-164.12512207,1.53541564941,0.256328582764
0.207,-158.473754883,1.5775680542,0.265865325928
0.208,-156.58996582,1.60808563232,0.275402069092
0.209,-150.938598633,1.65004730225,0.283794403076
0.21,-143.874389648,1.68056488037,0.292186737061
0.211,-143.403442383,1.71127319336,0.300960540771
0.212,-143.403442383,1.73797607422,0.309352874756
0.213,-142.932495117,1.76467895508,0.31774520874
0.214,-134.926391602,1.78756713867,0.325756072998
0.215,-121.268920898,1.81045532227,0.332622528076
0.216,-107.634997559,1.82571411133,0.338726043701
0.217,-93.5065795898,1.84097290039,0.343685150146
0.218,-84.558581543,1.85623168945,0.348644256592
0.219,-74.6686889648,1.86386108398,0.352840423584
0.22,-66.6861328125,1.87168121338,0.357036590576
0.221,-61.034765625,1.87549591064,0.360088348389
0.222,-52.5577148437,1.87549591064,0.362758636475
0.223,-44.0806640625,1.87931060791,0.365428924561
0.224,-34.66171875,1.87931060791,0.366954803467
0.225,-29.0103515625,1.86786651611,0.3688621521
0.226,-19.1440063477,1.86386108398,0.369243621826
0.227,-11.6088500977,1.85623168945,0.370388031006
0.228,-5.95748291016,1.83715820313,0.370006561279
0.229,-0.306115722656,1.82571411133,0.369625091553
0.23,10.0547241211,1.80282592773,0.3688621521
0.231,21.3574584961,1.78375244141,0.367336273193
0.232,31.2238037109,1.75704956055,0.365047454834
0.233,40.1718017578,1.73034667969,0.362377166748
0.234,49.5907470703,1.70345306396,0.359325408936
0.235,59.4806396484,1.67293548584,0.355892181396
0.236,68.8995849609,1.63860321045,0.350933074951
0.237,79.2368774414,1.60427093506,0.345973968506
0.238,88.1848754883,1.5661239624,0.340251922607
0.239,91.4815063477,1.52397155762,0.334911346436
0.24,92.8943481445,1.4820098877,0.328807830811
0.241,101.371398926,1.44004821777,0.322704315186
0.242,114.557922363,1.39408111572,0.315456390381
0.243,125.366162109,1.34449005127,0.307445526123
0.244,134.314160156,1.29108428955,0.299053192139
0.245,139.494580078,1.2414932251,0.290279388428
0.246,146.087841797,1.19171142578,0.281505584717
0.247,152.21015625,1.13067626953,0.271968841553
0.248,158.332470703,1.07707977295,0.262050628662
0.249,164.925732422,1.0160446167,0.252132415771
0.25,172.437341309,0.955009460449,0.241069793701
0.251,179.501550293,0.897598266602,0.230388641357
0.252,185.623864746,0.82893371582,0.21858215332
0.253,189.862390137,0.771713256836,0.207138061523
0.254,194.100915527,0.706672668457,0.1953125
0.255,197.868493652,0.638008117676,0.183486938477
0.256,201.636071777,0.572967529297,0.171279907227
0.257,204.932702637,0.504302978516,0.15869140625
0.258,208.700280762,0.435447692871,0.145721435547
0.259,211.525964355,0.36678314209,0.13313293457
0.26,214.351647949,0.29411315918,0.119781494141
0.261,217.648278809,0.229263305664,0.106811523438
0.262,220.450415039,0.156784057617,0.0930786132813
0.263,223.276098633,0.0879287719727,0.0797271728516
0.264,225.630834961,0.0154495239258,0.0659942626953
0.265,227.514624023,-0.0534057617188,0.0522613525391
0.266,229.398413086,-0.1220703125,0.0381469726563
0.267,231.282202148,-0.198554992676,0.0244331359863
0.268,232.695043945,-0.267219543457,0.00993728637695
0.269,233.165991211,-0.332260131836,-0.0037956237793
0.27,233.165991211,-0.400924682617,-0.0179100036621
0.271,233.636938477,-0.469589233398,-0.0320243835449
0.272,233.165991211,-0.538444519043,-0.0461387634277
0.273,232.22409668,-0.603294372559,-0.0602531433105
0.274,230.811254883,-0.668334960938,-0.0739860534668
0.275,228.92746582,-0.736999511719,-0.0881004333496
0.276,226.101782227,-0.798225402832,-0.101451873779
0.277,224.217993164,-0.863075256348,-0.114803314209
0.278,221.863256836,-0.924110412598,-0.128154754639
0.279,219.979467773,-0.981521606445,-0.141887664795
0.28,218.119226074,-1.0425567627,-0.154857635498
0.281,216.235437012,-1.09596252441,-0.167808532715
0.282,211.996911621,-1.15718841553,-0.180778503418
0.283,206.345544434,-1.21059417725,-0.192985534668
0.284,203.51986084,-1.26419067383,-0.205192565918
0.285,199.281335449,-1.31378173828,-0.217018127441
0.286,197.868493652,-1.35955810547,-0.228843688965
0.287,196.926599121,-1.40151977539,-0.241050720215
0.288,198.810388184,-1.45511627197,-0.252876281738
0.289,193.159020996,-1.49326324463,-0.264320373535
0.29,182.798181152,-1.53522491455,-0.275382995605
0.291,174.321130371,-1.57337188721,-0.285301208496
0.292,166.809521484,-1.6040802002,-0.295219421387
0.293,159.274365234,-1.63841247559,-0.304756164551
0.294,152.21015625,-1.67274475098,-0.313911437988
0.295,144.204052734,-1.69944763184,-0.322303771973
0.296,135.256054687,-1.72996520996,-0.329933166504
0.297,125.366162109,-1.75304412842,-0.337944030762
0.298,111.73223877,-1.76830291748,-0.344047546387
0.299,93.8362426758,-1.79500579834,-0.349388122559
0.3,83.475402832,-1.80644989014,-0.353965759277
0.301,73.1381103516,-1.8217086792,-0.35816192627
0.302,65.6029541016,-1.833152771,-0.361957550049
0.303,59.9515869141,-1.84078216553,-0.365390777588
0.304,57.5968505859,-1.84459686279,-0.368824005127
0.305,54.7711669922,-1.85222625732,-0.372257232666
0.306,50.0616943359,-1.84841156006,-0.374927520752
0.307,51.9454833984,-1.84841156006,-0.378360748291
0.308,52.4164306641,-1.84459686279,-0.381412506104
0.309,43.9393798828,-1.83696746826,-0.383701324463
0.31,29.8109619141,-1.82552337646,-0.385608673096
0.311,17.5898803711,-1.81407928467,-0.386371612549
0.312,4.87430419922,-1.79500579834,-0.386371612549
0.313,-7.84127197266,-1.78356170654,-0.385608673096
0.314,-19.6149536133,-1.76067352295,-0.383701324463
0.315,-29.9522460937,-1.73778533936,-0.38179397583
0.316,-40.3130859375,-1.7147064209,-0.379123687744
0.317,-50.6739257812,-1.68418884277,-0.375690460205
0.318,-60.0928710937,-1.64604187012,-0.371875762939
0.319,-68.569921875,-1.62315368652,-0.367679595947
0.32,-77.9653198242,-1.58500671387,-0.362720489502
0.321,-87.3842651367,-1.54666900635,-0.35701751709
0.322,-95.861315918,-1.51233673096,-0.351295471191
0.323,-104.809313965,-1.46656036377,-0.34481048584
0.324,-111.873522949,-1.42459869385,-0.337944030762
0.325,-119.385131836,-1.3786315918,-0.33031463623
0.326,-126.44934082,-1.32904052734,-0.322685241699
0.327,-133.98449707,-1.28326416016,-0.314674377441
0.328,-141.048706055,-1.22966766357,-0.30590057373
0.329,-149.525756836,-1.17626190186,-0.296745300293
0.33,-158.473754883,-1.12285614014,-0.287590026855
0.331,-167.869152832,-1.06544494629,-0.276908874512
0.332,-176.346203613,-1.0082244873,-0.266227722168
0.333,-182.468518066,-0.95100402832,-0.254783630371
0.334,-189.532727051,-0.885963439941,-0.243339538574
0.335,-195.184094238,-0.828742980957,-0.231513977051
0.336,-199.893566895,-0.763702392578,-0.219306945801
0.337,-202.719250488,-0.698852539063,-0.207099914551
0.338,-206.015881348,-0.633811950684,-0.194511413574
0.339,-209.312512207,-0.565147399902,-0.181541442871
0.34,-212.609143066,-0.504112243652,-0.169334411621
0.341,-215.882226562,-0.435256958008,-0.156002044678
0.342,-219.649804687,-0.358963012695,-0.142650604248
0.343,-223.888330078,-0.297737121582,-0.129299163818
0.344,-226.243066406,-0.225257873535,-0.115566253662
0.345,-229.06875,-0.160217285156,-0.101451873779
0.346,-231.894433594,-0.0839233398438,-0.087718963623
0.347,-233.778222656,-0.0152587890625,-0.0736045837402
0.348,-235.662011719,0.0497817993164,-0.0594902038574
0.349,-237.545800781,0.129890441895,-0.044994354248
0.35,-238.487695312,0.191116333008,-0.0308799743652
0.351,-239.429589844,0.263595581055,-0.0160026550293
0.352,-239.900537109,0.336265563965,-0.00150680541992
0.353,-240.371484375,0.404930114746,0.0126075744629
0.354,-240.371484375,0.469970703125,0.0271034240723
0.355,-239.900537109,0.538635253906,0.0415802001953
0.356,-239.900537109,0.603485107422,0.0556945800781
0.357,-237.545800781,0.672340393066,0.0701904296875
0.358,-236.132958984,0.737190246582,0.0843048095703
0.359,-233.778222656,0.802230834961,0.0980377197266
0.36,-231.423486328,0.863265991211,0.112152099609
0.361,-227.655908203,0.924301147461,0.125503540039
0.362,-226.243066406,0.98934173584,0.139236450195
0.363,-220.591699219,1.04656219482,0.152587890625
0.364,-213.080090332,1.10397338867,0.164794921875
0.365,-210.254406738,1.16119384766,0.177383422852
0.366,-208.841564941,1.21459960938,0.189590454102
0.367,-209.783459473,1.26819610596,0.202560424805
0.368,-197.538830566,1.31778717041,0.213623046875
0.369,-184.352307129,1.36737823486,0.224304199219
0.37,-177.288098145,1.41716003418,0.234966278076
0.371,-170.694836426,1.4591217041,0.245265960693
0.372,-166.927258301,1.50489807129,0.255184173584
0.373,-171.165783691,1.54685974121,0.265483856201
0.374,-173.991467285,1.58519744873,0.275783538818
0.375,-171.636730957,1.62334442139,0.286464691162
0.376,-167.869152832,1.65386199951,0.296001434326
0.377,-161.770385742,1.6881942749,0.30553817749
0.378,-150.467651367,1.71890258789,0.314311981201
0.379,-136.339233398,1.74179077148,0.321941375732
0.38,-118.91418457,1.76849365234,0.328807830811
0.381,-102.925524902,1.79138183594,0.334529876709
0.382,-95.3903686523,1.81045532227,0.339870452881
0.383,-93.5065795898,1.83334350586,0.345592498779
0.384,-91.1518432617,1.84478759766,0.350933074951
