"Latest: Time (s)","Latest: Potential 2 (mV)","Latest: Potential 1 (V)","Latest: Current (A)"
0,-276.610876465,-0.38948059082,-0.142269134521
0.001,-284.61697998,-0.28247833252,-0.125102996826
0.002,-291.681188965,-0.179481506348,-0.107173919678
0.003,-296.390661621,-0.0724792480469,-0.0892448425293
0.004,-300.629187012,0.0345230102539,-0.0709342956543
0.005,-301.571081543,0.137519836426,-0.0533866882324
0.006,-304.396765137,0.248336791992,-0.0343132019043
0.007,-307.22244873,0.351524353027,-0.0160026550293
0.008,-309.106237793,0.454521179199,0.00268936157227
0.009,-309.577185059,0.5615234375,0.0213813781738
0.01,-309.577185059,0.657081604004,0.0400543212891
0.011,-309.106237793,0.75626373291,0.0587463378906
0.012,-309.106237793,0.85563659668,0.0770568847656
0.013,-307.693395996,0.947380065918,0.0957489013672
0.014,-303.454870605,1.03511810303,0.113677978516
0.015,-298.274450684,1.123046875,0.131607055664
0.016,-292.15213623,1.21078491211,0.148773193359
0.017,-283.675085449,1.29108428955,0.165557861328
0.018,-270.959509277,1.3635635376,0.181198120117
0.019,-256.854638672,1.44004821777,0.196838378906
0.02,-249.319482422,1.50108337402,0.211334228516
0.021,-233.778222656,1.5661239624,0.224685668945
0.022,-220.120751953,1.62715911865,0.238018035889
0.023,-198.951672363,1.67675018311,0.249080657959
0.024,-185.29420166,1.72653198242,0.260143280029
0.025,-174.462414551,1.76849365234,0.270442962646
0.026,-163.654174805,1.80282592773,0.279979705811
0.027,-151.880493164,1.83715820313,0.289134979248
0.028,-138.693969727,1.85623168945,0.296764373779
0.029,-124.094604492,1.87549591064,0.304012298584
0.03,-109.518786621,1.89075469971,0.309734344482
0.031,-92.093737793,1.89456939697,0.314693450928
0.032,-76.0815307617,1.89456939697,0.31888961792
0.033,-57.7381347656,1.89075469971,0.321941375732
0.034,-40.3130859375,1.87931060791,0.323848724365
0.035,-21.0277954102,1.86004638672,0.324611663818
0.036,-1.24801025391,1.84097290039,0.324230194092
0.037,18.5317749023,1.806640625,0.322322845459
0.038,34.9913818359,1.77993774414,0.3200340271
0.039,48.6488525391,1.73416137695,0.316219329834
0.04,63.7191650391,1.6881942749,0.312404632568
0.041,78.2949829102,1.63478851318,0.307064056396
0.042,97.6038208008,1.58138275146,0.300579071045
0.043,115.499816895,1.51252746582,0.292568206787
0.044,131.017529297,1.45149230957,0.284938812256
0.045,147.971630859,1.38645172119,0.275783538818
0.046,164.925732422,1.30252838135,0.264720916748
0.047,179.501550293,1.22985839844,0.253658294678
0.048,192.217126465,1.14212036133,0.241451263428
0.049,205.874597168,1.05800628662,0.228862762451
0.05,219.037573242,0.966453552246,0.214767456055
0.051,231.753149414,0.874710083008,0.200271606445
0.052,241.643041992,0.775527954102,0.185775756836
0.053,249.178198242,0.679969787598,0.170516967773
0.054,255.300512695,0.576782226563,0.154876708984
0.055,261.422827148,0.477600097656,0.138854980469
0.056,267.050646973,0.370597839355,0.122451782227
0.057,272.231066895,0.263595581055,0.106430053711
0.058,276.469592285,0.160598754883,0.0892639160156
0.059,280.23717041,0.0497817993164,0.0720977783203
0.06,283.53380127,-0.0572204589844,0.054931640625
0.061,286.359484863,-0.160217285156,0.0377655029297
0.062,287.77232666,-0.267219543457,0.0198554992676
0.063,288.714221191,-0.370407104492,0.00268936157227
0.064,289.656115723,-0.47721862793,-0.014476776123
0.065,290.127062988,-0.580406188965,-0.0324058532715
0.066,288.714221191,-0.675964355469,-0.0499534606934
0.067,286.359484863,-0.778961181641,-0.0671195983887
0.068,284.004748535,-0.870704650879,-0.0839042663574
0.069,286.359484863,-0.970077514648,-0.101833343506
0.07,288.714221191,-1.05400085449,-0.118999481201
0.071,283.062854004,-1.1381149292,-0.13578414917
0.072,276.940539551,-1.22585296631,-0.152568817139
0.073,275.99864502,-1.29852294922,-0.169334411621
0.074,272.231066895,-1.37481689453,-0.185356140137
0.075,269.405383301,-1.44748687744,-0.201759338379
0.076,260.009985352,-1.51233673096,-0.217399597168
0.077,246.352514648,-1.56955718994,-0.231513977051
0.078,232.22409668,-1.62315368652,-0.245628356934
0.079,213.409753418,-1.67655944824,-0.257453918457
0.08,183.269128418,-1.72233581543,-0.267753601074
0.081,159.274365234,-1.76448822021,-0.276908874512
0.082,151.268261719,-1.79119110107,-0.285682678223
0.083,143.262158203,-1.82552337646,-0.294456481934
0.084,131.959423828,-1.84078216553,-0.302085876465
0.085,120.209289551,-1.85604095459,-0.308570861816
0.086,106.080871582,-1.86748504639,-0.315055847168
0.087,91.4815063477,-1.87129974365,-0.320014953613
0.088,76.4111938477,-1.86748504639,-0.324592590332
0.089,60.8934814453,-1.86367034912,-0.327644348145
0.09,42.9974853516,-1.84459686279,-0.329551696777
0.091,27.9271728516,-1.82552337646,-0.330696105957
0.092,8.64188232422,-1.80263519287,-0.331077575684
0.093,-11.6088500977,-1.76830291748,-0.329551696777
0.094,-29.9522460937,-1.72996520996,-0.327262878418
0.095,-47.8482421875,-1.6918182373,-0.324211120605
0.096,-65.7442382812,-1.63841247559,-0.319633483887
0.097,-84.558581543,-1.58500671387,-0.314292907715
0.098,-102.925524902,-1.52759552002,-0.307426452637
0.099,-120.327026367,-1.4627456665,-0.299797058105
0.1,-137.28112793,-1.39007568359,-0.291023254395
0.101,-153.293334961,-1.32141113281,-0.28148651123
0.102,-169.281994629,-1.24111175537,-0.270805358887
0.103,-183.410412598,-1.16481781006,-0.259742736816
0.104,-197.067883301,-1.07688903809,-0.247535705566
0.105,-209.783459473,-0.985336303711,-0.234184265137
0.106,-222.004541016,-0.893592834473,-0.220832824707
0.107,-232.836328125,-0.802040100098,-0.206336975098
0.108,-242.726220703,-0.706481933594,-0.191459655762
0.109,-253.087060547,-0.607109069824,-0.176200866699
0.11,-262.035058594,-0.507926940918,-0.159816741943
0.111,-270.488562012,-0.400924682617,-0.143032073975
0.112,-278.023718262,-0.297737121582,-0.126628875732
0.113,-285.087927246,-0.187110900879,-0.108699798584
0.114,-291.210241699,-0.0877380371094,-0.0915336608887
0.115,-297.332556152,0.023078918457,-0.0736045837402
0.116,-302.042028809,0.129890441895,-0.0552940368652
0.117,-305.338659668,0.23307800293,-0.0366020202637
0.118,-308.164343262,0.343894958496,-0.0179100036621
0.119,-309.577185059,0.443077087402,0.000782012939453
0.12,-310.51907959,0.550079345703,0.019474029541
0.121,-310.51907959,0.649452209473,0.0381469726563
0.122,-308.635290527,0.744819641113,0.0564575195313
0.123,-305.809606934,0.844192504883,0.0743865966797
0.124,-302.042028809,0.935935974121,0.0926971435547
0.125,-297.332556152,1.0274887085,0.110626220703
0.126,-291.681188965,1.11923217773,0.127792358398
0.127,-285.087927246,1.19934082031,0.144958496094
0.128,-277.552770996,1.28345489502,0.161361694336
0.129,-272.372351074,1.35974884033,0.177764892578
0.13,-275.198034668,1.43241882324,0.19416809082
0.131,-271.901403809,1.49726867676,0.210571289063
0.132,-264.837194824,1.55849456787,0.226192474365
0.133,-254.028955078,1.61571502686,0.241451263428
0.134,-240.842431641,1.66912078857,0.255184173584
0.135,-231.423486328,1.71508789063,0.26891708374
0.136,-212.138195801,1.75704956055,0.281505584717
0.137,-198.480725098,1.7951965332,0.292568206787
0.138,-182.939465332,1.82189941406,0.303249359131
0.139,-163.654174805,1.84860229492,0.312404632568
0.14,-142.461547852,1.87168121338,0.320415496826
0.141,-123.623657227,1.88312530518,0.327663421631
0.142,-106.693103027,1.89075469971,0.333003997803
0.143,-85.0295288086,1.89075469971,0.337581634521
0.144,-70.4301635742,1.88312530518,0.341396331787
0.145,-67.6280273437,1.87549591064,0.345211029053
0.146,-47.8482421875,1.86004638672,0.347881317139
0.147,-27.1265625,1.83334350586,0.349025726318
0.148,-7.37032470703,1.806640625,0.349025726318
0.149,13.8223022461,1.76849365234,0.346736907959
0.15,34.9913818359,1.72653198242,0.3444480896
0.151,55.7130615234,1.68437957764,0.340251922607
0.152,77.8240356445,1.63478851318,0.335292816162
0.153,94.778137207,1.5775680542,0.328807830811
0.154,114.557922363,1.51634216309,0.321178436279
0.155,130.075634766,1.4476776123,0.313167572021
0.156,146.087841797,1.37882232666,0.304012298584
0.157,164.454785156,1.30634307861,0.29333114624
0.158,181.856286621,1.22222900391,0.281887054443
0.159,196.455651855,1.14212036133,0.269680023193
0.16,210.113122559,1.06182098389,0.25671005249
0.161,222.334204102,0.96263885498,0.242595672607
0.162,233.636938477,0.878524780273,0.228862762451
0.163,243.526831055,0.775527954102,0.213241577148
0.164,252.945776367,0.679969787598,0.197601318359
0.165,260.009985352,0.580596923828,0.18196105957
0.166,269.405383301,0.473785400391,0.165557861328
0.167,279.766223145,0.378227233887,0.148010253906
0.168,290.127062988,0.271224975586,0.130081176758
0.169,299.075061035,0.164413452148,0.111770629883
0.17,306.610217285,0.0574111938477,0.0930786132813
0.171,313.203479004,-0.0495910644531,0.0740051269531
0.172,317.889404297,-0.152587890625,0.0545501708984
0.173,322.598876953,-0.259590148926,0.0350952148438
0.174,325.895507813,-0.362777709961,0.0152778625488
0.175,327.779296875,-0.465774536133,-0.00455856323242
0.176,328.250244141,-0.568962097168,-0.0243949890137
0.177,327.308349609,-0.668334960938,-0.0442314147949
0.178,324.953613281,-0.763702392578,-0.063304901123
0.179,322.127929688,-0.863075256348,-0.0831413269043
0.18,316.4765625,-0.954818725586,-0.101451873779
0.181,309.435900879,-1.04637145996,-0.120525360107
0.182,302.84263916,-1.13048553467,-0.138454437256
0.183,295.30748291,-1.21440887451,-0.156002044678
0.184,282.591906738,-1.29089355469,-0.173149108887
0.185,269.876330566,-1.3671875,-0.188789367676
0.186,258.597143555,-1.43222808838,-0.204048156738
0.187,247.765356445,-1.50089263916,-0.218925476074
0.188,237.404516602,-1.55811309814,-0.233039855957
0.189,226.101782227,-1.61552429199,-0.246391296387
0.19,212.938806152,-1.67274475098,-0.258979797363
0.191,195.513757324,-1.7147064209,-0.269660949707
0.192,166.809521484,-1.75304412842,-0.279197692871
0.193,151.739208984,-1.79119110107,-0.288352966309
0.194,147.971630859,-1.81407928467,-0.29712677002
0.195,143.262158203,-1.84078216553,-0.305137634277
0.196,125.837109375,-1.85604095459,-0.312385559082
0.197,99.0166625977,-1.86367034912,-0.31810760498
0.198,83.0044555664,-1.87129974365,-0.322685241699
0.199,67.0157958984,-1.87129974365,-0.326118469238
0.2,54.3002197266,-1.85985565186,-0.329170227051
0.201,39.7008544922,-1.85222625732,-0.33145904541
0.202,23.7121948242,-1.82933807373,-0.331840515137
0.203,7.22904052734,-1.80263519287,-0.332221984863
0.204,-9.72506103516,-1.77211761475,-0.331077575684
0.205,-26.6556152344,-1.73397064209,-0.329170227051
0.206,-45.0225585937,-1.6918182373,-0.325736999512
0.207,-62.9185546875,-1.64222717285,-0.32154083252
0.208,-79.3781616211,-1.5926361084,-0.316581726074
0.209,-95.861315918,-1.53141021729,-0.310096740723
0.21,-114.228259277,-1.4741897583,-0.302848815918
0.211,-133.042602539,-1.40151977539,-0.294456481934
0.212,-149.525756836,-1.32522583008,-0.284538269043
0.213,-166.008911133,-1.25637054443,-0.274620056152
0.214,-180.584729004,-1.17244720459,-0.263175964355
0.215,-195.184094238,-1.08451843262,-0.251350402832
0.216,-207.89967041,-1.00059509277,-0.238380432129
0.217,-220.120751953,-0.90503692627,-0.224647521973
0.218,-231.894433594,-0.813484191895,-0.210151672363
0.219,-242.726220703,-0.717926025391,-0.195655822754
0.22,-253.087060547,-0.614738464355,-0.180015563965
0.221,-262.506005859,-0.515556335449,-0.163631439209
0.222,-271.430456543,-0.412368774414,-0.147609710693
0.223,-279.436560059,-0.305366516113,-0.130443572998
0.224,-286.500769043,-0.206184387207,-0.112895965576
0.225,-293.094030762,-0.0953674316406,-0.0953483581543
0.226,-298.745397949,0.00782012939453,-0.0770378112793
0.227,-303.925817871,0.118446350098,-0.0583457946777
0.228,-307.693395996,0.221633911133,-0.0400352478027
0.229,-310.51907959,0.328636169434,-0.0213432312012
0.23,-312.379321289,0.431632995605,-0.00226974487305
0.231,-313.792163086,0.534820556641,0.0168037414551
0.232,-313.792163086,0.638008117676,0.0354766845703
0.233,-313.32121582,0.737190246582,0.0537872314453
0.234,-310.990026855,0.832748413086,0.0728607177734
0.235,-308.164343262,0.92830657959,0.0911712646484
0.236,-304.396765137,1.01985931396,0.10986328125
0.237,-298.745397949,1.10778808594,0.127029418945
0.238,-291.210241699,1.19171142578,0.144195556641
0.239,-282.733190918,1.26819610596,0.161361694336
0.24,-270.017614746,1.3521194458,0.177383422852
0.241,-264.366247559,1.42478942871,0.193023681641
0.242,-256.383691406,1.48963928223,0.207901000977
0.243,-252.145166016,1.55467987061,0.223159790039
0.244,-254.499902344,1.61571502686,0.238780975342
0.245,-245.080957031,1.66530609131,0.253276824951
0.246,-231.894433594,1.71508789063,0.266628265381
0.247,-215.882226562,1.74942016602,0.279216766357
0.248,-198.951672363,1.79138183594,0.290660858154
0.249,-181.526623535,1.82571411133,0.300960540771
0.25,-165.067016602,1.84860229492,0.310497283936
0.251,-147.171020508,1.86386108398,0.318508148193
0.252,-128.804077148,1.88312530518,0.326137542725
0.253,-109.047839355,1.88694000244,0.331859588623
0.254,-86.9133178711,1.89075469971,0.336437225342
0.255,-68.569921875,1.88694000244,0.340251922607
0.256,-46.9063476562,1.87168121338,0.34215927124
0.257,-27.1265625,1.86004638672,0.34330368042
0.258,-8.31221923828,1.84097290039,0.343685150146
0.259,10.0547241211,1.806640625,0.34215927124
0.26,29.3400146484,1.77612304688,0.339870452881
0.261,47.7069580078,1.73797607422,0.336437225342
0.262,65.6029541016,1.6881942749,0.33224105835
0.263,83.0044555664,1.64241790771,0.326519012451
0.264,99.9585571289,1.589012146,0.3200340271
0.265,116.441711426,1.52397155762,0.312404632568
0.266,131.959423828,1.46293640137,0.304012298584
0.267,148.442578125,1.39408111572,0.294857025146
0.268,163.512890625,1.31778717041,0.284557342529
0.269,178.088708496,1.2414932251,0.273113250732
0.27,191.746179199,1.15737915039,0.260906219482
0.271,204.932702637,1.07326507568,0.248317718506
0.272,216.235437012,0.981712341309,0.234966278076
0.273,227.043676758,0.886154174805,0.220489501953
0.274,239.75925293,0.798416137695,0.20637512207
0.275,247.765356445,0.69522857666,0.190734863281
0.276,256.713354492,0.595855712891,0.175094604492
0.277,266.60324707,0.492858886719,0.158309936523
0.278,275.99864502,0.389671325684,0.141906738281
0.279,284.004748535,0.282669067383,0.124359130859
0.28,291.06895752,0.179672241211,0.106811523438
0.281,296.720324707,0.0688552856445,0.0885009765625
0.282,301.429797363,-0.030517578125,0.0705718994141
0.283,306.13927002,-0.141143798828,0.0514984130859
0.284,309.906848145,-0.248146057129,0.0328063964844
0.285,312.732531738,-0.347518920898,0.0137519836426
0.286,314.145373535,-0.454330444336,-0.00532150268555
0.287,315.087268066,-0.553703308105,-0.0243949890137
0.288,315.087268066,-0.660705566406,-0.0430870056152
0.289,313.203479004,-0.756072998047,-0.0621604919434
0.29,311.319689941,-0.847816467285,-0.0808525085449
0.291,308.023059082,-0.946998596191,-0.0991630554199
0.292,304.255480957,-1.03492736816,-0.117855072021
0.293,299.546008301,-1.11904144287,-0.135402679443
0.294,294.365588379,-1.20296478271,-0.153331756592
0.295,288.243273926,-1.28326416016,-0.170860290527
0.296,281.179064941,-1.35955810547,-0.18726348877
0.297,269.405383301,-1.43222808838,-0.203285217285
0.298,254.82956543,-1.49326324463,-0.218162536621
0.299,242.113989258,-1.55811309814,-0.23265838623
0.3,232.22409668,-1.61170959473,-0.246391296387
0.301,219.979467773,-1.66130065918,-0.25936126709
0.302,185.15291748,-1.7147064209,-0.26927947998
0.303,154.093945312,-1.75304412842,-0.278434753418
0.304,142.320263672,-1.78356170654,-0.286445617676
0.305,134.314160156,-1.81789398193,-0.294456481934
0.306,126.308056641,-1.83696746826,-0.301704406738
0.307,118.325500488,-1.85222625732,-0.308570861816
0.308,106.551818848,-1.87129974365,-0.315055847168
0.309,93.3652954102,-1.86748504639,-0.320014953613
0.31,76.4111938477,-1.86748504639,-0.324211120605
0.311,59.9515869141,-1.86748504639,-0.327262878418
0.312,42.9974853516,-1.85222625732,-0.329551696777
0.313,28.8690673828,-1.82933807373,-0.330696105957
0.314,12.4094604492,-1.8102645874,-0.331077575684
0.315,-5.01558837891,-1.77593231201,-0.330696105957
0.316,-23.358984375,-1.73778533936,-0.328407287598
0.317,-42.6678222656,-1.69944763184,-0.325355529785
0.318,-61.034765625,-1.64604187012,-0.32154083252
0.319,-79.8491088867,-1.59645080566,-0.316200256348
0.32,-97.2741577148,-1.54285430908,-0.310096740723
0.321,-114.699206543,-1.47800445557,-0.302467346191
0.322,-132.100708008,-1.41296386719,-0.294456481934
0.323,-148.112915039,-1.33666992188,-0.284538269043
0.324,-163.654174805,-1.2601852417,-0.274620056152
0.325,-178.700939941,-1.18389129639,-0.263557434082
0.326,-192.82935791,-1.09596252441,-0.251731872559
0.327,-206.486828613,-1.0082244873,-0.237998962402
0.328,-219.178857422,-0.920295715332,-0.225028991699
0.329,-231.423486328,-0.824928283691,-0.210914611816
0.33,-242.255273437,-0.725555419922,-0.195655822754
0.331,-252.616113281,-0.626182556152,-0.180397033691
0.332,-263.424353027,-0.527000427246,-0.164012908936
0.333,-271.901403809,-0.423812866211,-0.147609710693
0.334,-278.965612793,-0.320625305176,-0.130825042725
0.335,-285.558874512,-0.213813781738,-0.113277435303
0.336,-291.681188965,-0.110626220703,-0.0961112976074
0.337,-296.861608887,0.000190734863281,-0.0774192810059
0.338,-301.100134277,0.103187561035,-0.0591087341309
0.339,-305.338659668,0.210189819336,-0.0411796569824
0.34,-307.693395996,0.317192077637,-0.0224876403809
0.341,-309.577185059,0.420188903809,-0.0037956237793
0.342,-310.048132324,0.523376464844,0.0148963928223
0.343,-310.51907959,0.622749328613,0.0335693359375
0.344,-309.577185059,0.72193145752,0.0522613525391
0.345,-307.693395996,0.825119018555,0.0705718994141
0.346,-304.396765137,0.912857055664,0.0888824462891
0.347,-299.68729248,1.00841522217,0.107192993164
0.348,-293.564978027,1.10015869141,0.124359130859
0.349,-285.558874512,1.18408203125,0.141143798828
0.35,-277.552770996,1.26438140869,0.15754699707
0.351,-269.075720215,1.340675354,0.173187255859
0.352,-266.250036621,1.41334533691,0.189590454102
0.353,-262.976953125,1.48582458496,0.205230712891
0.354,-253.558007812,1.54685974121,0.2197265625
0.355,-239.429589844,1.60808563232,0.234203338623
0.356,-217.766015625,1.66149139404,0.246410369873
0.357,-208.370617676,1.70726776123,0.25899887085
0.358,-197.067883301,1.75323486328,0.270442962646
0.359,-173.52052002,1.79138183594,0.280361175537
0.36,-151.409545898,1.82189941406,0.288753509521
0.361,-137.28112793,1.85241699219,0.296382904053
0.362,-127.391235352,1.87168121338,0.304012298584
0.363,-117.524890137,1.88312530518,0.310878753662
0.364,-112.344470215,1.89456939697,0.316982269287
0.365,-109.518786621,1.89456939697,0.323848724365
0.366,-97.2741577148,1.88694000244,0.329189300537
0.367,-78.4362670898,1.88312530518,0.333385467529
0.368,-57.7381347656,1.86386108398,0.335674285889
0.369,-26.1846679687,1.84097290039,0.336818695068
0.37,-5.95748291016,1.8180847168,0.336818695068
0.371,14.2932495117,1.78375244141,0.335292816162
0.372,34.5204345703,1.74179077148,0.33224105835
0.373,55.2421142578,1.6996383667,0.328807830811
0.374,74.0800048828,1.64623260498,0.323848724365
0.375,88.1848754883,1.59282684326,0.31774520874
0.376,105.138977051,1.53923034668,0.310878753662
0.377,123.011425781,1.46675109863,0.302867889404
0.378,140.436474609,1.40190124512,0.294094085693
0.379,155.977734375,1.32923126221,0.284175872803
0.38,171.024499512,1.24530792236,0.273113250732
0.381,184.681970215,1.16882324219,0.262050628662
0.382,198.339440918,1.08089447021,0.249462127686
0.383,211.996911621,0.98934173584,0.236492156982
0.384,223.276098633,0.901412963867,0.222396850586
0.385,233.636938477,0.806045532227,0.207901000977
