"Latest: Time (s)","Latest: Potential (mV)"
0,1.41284179688
0.001,0.94189453125
0.002,1.41284179688
0.003,1.41284179688
0.004,1.41284179688
0.005,1.8837890625
0.006,182.633349609
0.007,375.156591797
0.008,573.331201172
0.009,770.09296875
0.01,956.96484375
0.011,1130.17924805
0.012,1246.45612793
0.013,1245.98518066
0.014,1246.9270752
0.015,1245.04328613
0.016,1247.86896973
0.017,1246.45612793
0.018,1245.04328613
0.019,1247.39802246
0.02,1245.98518066
0.021,1163.61650391
0.022,996.500866699
0.023,812.454675293
0.024,618.047644043
0.025,420.343981934
0.026,227.820739746
0.027,45.1873901367
0.028,1.41284179688
0.029,1.41284179688
0.03,1.41284179688
0.031,1.41284179688
0.032,0.94189453125
0.033,0.94189453125
0.034,0.94189453125
0.035,1.41284179688
0.036,1.41284179688
0.037,1.41284179688
0.038,1.41284179688
0.039,131.32364502
0.04,318.19552002
0.041,513.544445801
0.042,709.835266113
0.043,899.061877441
0.044,1075.10196533
0.045,1232.32770996
0.046,1246.45612793
0.047,1246.45612793
0.048,1246.9270752
0.049,1245.5142334
0.05,1247.39802246
0.051,1245.98518066
0.052,1245.5142334
0.053,1247.39802246
0.054,1214.9262085
0.055,1055.34572754
0.056,877.421850586
0.057,687.229797363
0.058,489.549682617
0.059,295.142651367
0.06,107.776281738
0.061,1.8837890625
0.062,1.41284179688
0.063,1.41284179688
0.064,1.41284179688
0.065,0.94189453125
0.066,0.94189453125
0.067,1.41284179688
0.068,1.41284179688
0.069,0.94189453125
0.07,1.41284179688
0.071,1.41284179688
0.072,62.5888916016
0.073,245.245788574
0.074,439.652819824
0.075,637.356481934
0.076,831.73996582
0.077,1014.39686279
0.078,1180.54705811
0.079,1247.39802246
0.08,1245.98518066
0.081,1247.39802246
0.082,1246.9270752
0.083,1245.98518066
0.084,1247.39802246
0.085,1245.5142334
0.086,1246.9270752
0.087,1247.39802246
0.088,1121.23125
0.089,947.074951172
0.09,758.319287109
0.091,561.086572266
0.092,361.970068359
0.093,170.388720703
0.094,1.41284179688
0.095,1.41284179688
0.096,1.41284179688
0.097,1.41284179688
0.098,0.94189453125
0.099,1.41284179688
0.1,1.41284179688
0.101,1.41284179688
0.102,1.41284179688
0.103,1.41284179688
0.104,1.8837890625
0.105,1.41284179688
0.106,180.278613281
0.107,371.859960937
0.108,570.505517578
0.109,766.796337891
0.11,954.610107422
0.111,1127.35356445
0.112,1246.45612793
0.113,1246.9270752
0.114,1245.98518066
0.115,1247.39802246
0.116,1245.98518066
0.117,1245.04328613
0.118,1247.39802246
0.119,1245.98518066
0.12,1247.39802246
0.121,1175.36663818
0.122,1007.80360107
0.123,823.286462402
0.124,627.937536621
0.125,428.350085449
0.126,233.943054199
0.127,49.4259155273
0.128,1.41284179688
0.129,1.41284179688
0.13,1.41284179688
0.131,1.41284179688
0.132,1.41284179688
0.133,1.41284179688
0.134,1.41284179688
0.135,1.41284179688
0.136,0.94189453125
0.137,1.41284179688
0.138,1.41284179688
0.139,118.137121582
0.14,306.421838379
0.141,503.183605957
0.142,701.358215332
0.143,892.939562988
0.144,1071.33438721
0.145,1231.8567627
0.146,1247.39802246
0.147,1246.9270752
0.148,1245.04328613
0.149,1247.39802246
0.15,1245.98518066
0.151,1245.98518066
0.152,1246.9270752
0.153,1246.45612793
0.154,1226.20539551
0.155,1066.17751465
0.156,885.875354004
0.157,693.352111816
0.158,494.23560791
0.159,297.02644043
0.16,108.247229004
0.161,1.41284179688
0.162,1.41284179688
0.163,1.41284179688
0.164,1.41284179688
0.165,0.94189453125
0.166,0.94189453125
0.167,0.94189453125
0.168,0.94189453125
0.169,1.41284179688
0.17,1.41284179688
0.171,1.41284179688
0.172,62.5888916016
0.173,245.71673584
0.174,440.12376709
0.175,637.803881836
0.176,832.210913086
0.177,1015.33875732
0.178,1181.01800537
0.179,1246.45612793
0.18,1247.39802246
0.181,1246.45612793
0.182,1245.5142334
0.183,1247.39802246
0.184,1245.98518066
0.185,1247.39802246
0.186,1246.9270752
0.187,1245.98518066
0.188,1117.48721924
0.189,943.307373047
0.19,755.02265625
0.191,558.260888672
0.192,360.086279297
0.193,168.975878906
0.194,1.41284179688
0.195,1.8837890625
0.196,1.41284179688
0.197,1.41284179688
0.198,1.41284179688
0.199,0.94189453125
0.2,1.41284179688
0.201,1.41284179688
0.202,1.41284179688
0.203,1.41284179688
0.204,1.41284179688
0.205,3.767578125
0.206,183.104296875
0.207,374.214697266
0.208,571.918359375
0.209,768.209179687
0.21,955.081054688
0.211,1127.82451172
0.212,1247.39802246
0.213,1245.98518066
0.214,1247.39802246
0.215,1245.98518066
0.216,1245.98518066
0.217,1246.9270752
0.218,1245.04328613
0.219,1247.86896973
0.22,1246.45612793
0.221,1173.01190186
0.222,1006.39075928
0.223,821.40267334
0.224,626.524694824
0.225,427.408190918
0.226,233.472106934
0.227,48.9549682617
0.228,1.41284179688
0.229,1.41284179688
0.23,1.41284179688
0.231,1.41284179688
0.232,0.94189453125
0.233,1.41284179688
0.234,0.94189453125
0.235,1.41284179688
0.236,1.41284179688
0.237,1.41284179688
0.238,1.41284179688
0.239,118.608068848
0.24,306.421838379
0.241,503.183605957
0.242,701.358215332
0.243,892.468615723
0.244,1071.33438721
0.245,1230.91486816
0.246,1246.9270752
0.247,1245.04328613
0.248,1247.39802246
0.249,1245.98518066
0.25,1246.9270752
0.251,1246.9270752
0.252,1245.04328613
0.253,1247.86896973
0.254,1226.67634277
0.255,1066.64846191
0.256,886.817248535
0.257,694.294006348
0.258,495.177502441
0.259,298.439282227
0.26,109.660070801
0.261,1.41284179688
0.262,1.41284179688
0.263,1.41284179688
0.264,1.41284179688
0.265,1.41284179688
0.266,0.94189453125
0.267,1.41284179688
0.268,1.41284179688
0.269,1.41284179688
0.27,1.41284179688
0.271,1.41284179688
0.272,58.8448608398
0.273,241.949157715
0.274,436.356188965
0.275,635.472692871
0.276,829.879724121
0.277,1013.45496826
0.278,1180.07611084
0.279,1247.86896973
0.28,1245.98518066
0.281,1245.98518066
0.282,1246.9270752
0.283,1245.04328613
0.284,1247.39802246
0.285,1246.45612793
0.286,1245.98518066
0.287,1247.86896973
0.288,1123.11503906
0.289,949.4296875
0.29,760.203076172
0.291,562.970361328
0.292,363.382910156
0.293,171.8015625
0.294,1.41284179688
0.295,1.41284179688
0.296,1.41284179688
0.297,1.41284179688
0.298,1.41284179688
0.299,1.41284179688
0.3,0.94189453125
0.301,1.41284179688
0.302,1.41284179688
0.303,1.41284179688
0.304,1.41284179688
0.305,1.41284179688
0.306,179.33671875
0.307,370.918066406
0.308,569.092675781
0.309,765.854443359
0.31,953.197265625
0.311,1126.88261719
0.312,1245.98518066
0.313,1246.9270752
0.314,1245.98518066
0.315,1246.9270752
0.316,1246.45612793
0.317,1245.04328613
0.318,1247.39802246
0.319,1245.98518066
0.32,1246.45612793
0.321,1175.83758545
0.322,1008.74549561
0.323,824.228356934
0.324,628.408483887
0.325,428.821032715
0.326,234.414001465
0.327,49.896862793
0.328,1.41284179688
0.329,1.41284179688
0.33,0.94189453125
0.331,0.94189453125
0.332,1.41284179688
0.333,1.41284179688
0.334,0.94189453125
0.335,0.94189453125
0.336,1.41284179688
0.337,1.41284179688
0.338,1.41284179688
0.339,118.137121582
0.34,306.421838379
0.341,502.712658691
0.342,700.887268066
0.343,892.468615723
0.344,1070.8869873
0.345,1230.91486816
0.346,1246.45612793
0.347,1246.9270752
0.348,1245.98518066
0.349,1246.9270752
0.35,1245.98518066
0.351,1245.04328613
0.352,1246.9270752
0.353,1246.45612793
0.354,1226.67634277
0.355,1067.11940918
0.356,887.288195801
0.357,694.294006348
0.358,496.119396973
0.359,298.910229492
0.36,110.131018066
0.361,1.41284179688
0.362,1.41284179688
0.363,1.41284179688
0.364,0.94189453125
0.365,0.94189453125
0.366,1.41284179688
0.367,0.94189453125
0.368,0.94189453125
0.369,1.41284179688
0.37,1.41284179688
0.371,1.41284179688
0.372,58.8448608398
0.373,241.949157715
0.374,436.356188965
0.375,635.001745605
0.376,829.408776855
0.377,1013.45496826
0.378,1179.60516357
0.379,1246.45612793
0.38,1246.45612793
0.381,1246.9270752
0.382,1245.04328613
0.383,1247.39802246
0.384,1245.98518066
0.385,1245.98518066
0.386,1247.39802246
0.387,1245.98518066
0.388,1122.6440918
0.389,948.487792969
0.39,760.203076172
0.391,562.499414063
0.392,363.853857422
0.393,171.8015625
0.394,1.41284179688
0.395,1.8837890625
0.396,1.41284179688
0.397,0.94189453125
0.398,0.94189453125
0.399,0.94189453125
0.4,0.94189453125
0.401,1.41284179688
0.402,0.94189453125
0.403,1.41284179688
0.404,1.41284179688
0.405,1.41284179688
0.406,178.865771484
0.407,369.976171875
0.408,568.621728516
0.409,765.383496094
0.41,952.726318359
0.411,1126.41166992
0.412,1247.39802246
0.413,1245.98518066
0.414,1246.9270752
0.415,1246.9270752
0.416,1245.04328613
0.417,1247.39802246
0.418,1245.98518066
0.419,1246.45612793
0.42,1246.9270752
0.421,1176.77947998
0.422,1010.1583374
0.423,825.170251465
0.424,629.821325684
0.425,429.762927246
0.426,235.355895996
0.427,50.3678100586
0.428,1.41284179688
0.429,1.41284179688
0.43,1.41284179688
0.431,0.94189453125
0.432,0.94189453125
0.433,0.94189453125
0.434,1.41284179688
0.435,1.41284179688
0.436,1.41284179688
0.437,1.41284179688
0.438,1.41284179688
0.439,116.724279785
0.44,304.538049316
0.441,502.241711426
0.442,699.47442627
0.443,891.526721191
0.444,1070.41604004
0.445,1230.4439209
0.446,1246.9270752
0.447,1245.98518066
0.448,1246.9270752
0.449,1245.98518066
0.45,1245.98518066
0.451,1246.9270752
0.452,1245.5142334
0.453,1247.86896973
0.454,1228.08918457
0.455,1068.53225098
0.456,888.701037598
0.457,695.706848145
0.458,497.061291504
0.459,299.381176758
0.46,111.072912598
0.461,1.41284179688
0.462,1.41284179688
0.463,1.41284179688
0.464,1.41284179688
0.465,0.94189453125
0.466,0.94189453125
0.467,0.94189453125
0.468,1.41284179688
0.469,1.41284179688
0.47,1.41284179688
0.471,1.41284179688
0.472,56.9610717773
0.473,240.536315918
0.474,434.943347168
0.475,634.059851074
0.476,828.93782959
0.477,1012.51307373
0.478,1179.13421631
0.479,1247.86896973
0.48,1246.45612793
0.481,1245.04328613
0.482,1247.39802246
0.483,1245.98518066
0.484,1245.98518066
0.485,1246.9270752
0.486,1245.98518066
0.487,1247.86896973
0.488,1124.52788086
0.489,950.842529297
0.49,761.144970703
0.491,563.912255859
0.492,364.795751953
0.493,173.214404297
0.494,1.41284179688
0.495,1.41284179688
0.496,1.41284179688
0.497,1.41284179688
0.498,0.94189453125
0.499,1.41284179688
0.5,1.41284179688
0.501,1.41284179688
0.502,0.94189453125
0.503,0.94189453125
0.504,1.41284179688
0.505,1.41284179688
0.506,176.981982422
0.507,368.563330078
0.508,567.208886719
0.509,764.441601562
0.51,952.255371094
0.511,1125.94072266
0.512,1246.45612793
0.513,1247.39802246
0.514,1245.98518066
0.515,1245.04328613
0.516,1247.39802246
0.517,1245.98518066
0.518,1246.9270752
0.519,1246.9270752
0.52,1245.98518066
0.521,1178.19232178
0.522,1011.5711792
0.523,827.054040527
0.524,631.23416748
0.525,431.175769043
0.526,236.297790527
0.527,50.8387573242
0.528,1.8837890625
0.529,0.94189453125
0.53,1.41284179688
0.531,1.41284179688
0.532,1.41284179688
0.533,0.94189453125
0.534,1.41284179688
0.535,1.41284179688
0.536,1.41284179688
0.537,1.41284179688
0.538,1.41284179688
0.539,115.311437988
0.54,303.596154785
0.541,500.357922363
0.542,698.532531738
0.543,890.113879395
0.544,1069.94509277
0.545,1229.97297363
0.546,1245.98518066
0.547,1247.39802246
0.548,1245.98518066
0.549,1245.5142334
0.55,1247.39802246
0.551,1245.98518066
0.552,1247.39802246
0.553,1246.45612793
0.554,1229.50202637
0.555,1069.47414551
0.556,889.642932129
0.557,697.119689941
0.558,498.474133301
0.559,300.770471191
0.56,111.543859863
0.561,1.41284179688
0.562,1.41284179688
0.563,1.41284179688
0.564,0.94189453125
0.565,0.94189453125
0.566,0.470947265625
0.567,0.94189453125
0.568,0.94189453125
0.569,0.94189453125
0.57,1.41284179688
0.571,1.41284179688
0.572,56.0191772461
0.573,239.123474121
0.574,434.472399902
0.575,633.117956543
0.576,827.524987793
0.577,1011.5711792
0.578,1178.66326904
0.579,1246.45612793
0.58,1245.98518066
0.581,1247.39802246
0.582,1245.04328613
0.583,1247.39802246
0.584,1246.9270752
0.585,1245.5142334
0.586,1247.86896973
0.587,1246.45612793
0.588,1124.52788086
0.589,951.313476563
0.59,761.615917969
0.591,564.383203125
0.592,364.795751953
0.593,172.743457031
0.594,0.94189453125
0.595,1.41284179688
0.596,1.41284179688
0.597,1.41284179688
0.598,1.41284179688
0.599,0.94189453125
0.6,0.94189453125
0.601,1.41284179688
0.602,1.41284179688
0.603,1.41284179688
0.604,1.41284179688
0.605,1.41284179688
0.606,177.452929687
0.607,369.034277344
0.608,567.208886719
0.609,763.970654297
0.61,951.784423828
0.611,1125.46977539
0.612,1247.86896973
0.613,1245.98518066
0.614,1245.98518066
0.615,1246.9270752
0.616,1245.5142334
0.617,1247.39802246
0.618,1246.45612793
0.619,1245.04328613
0.62,1247.39802246
0.621,1178.19232178
0.622,1011.10023193
0.623,826.583093262
0.624,630.763220215
0.625,430.704821777
0.626,236.768737793
0.627,50.8387573242
0.628,1.41284179688
0.629,1.41284179688
0.63,0.94189453125
0.631,1.41284179688
0.632,1.41284179688
0.633,1.41284179688
0.634,1.41284179688
0.635,1.41284179688
0.636,1.41284179688
0.637,1.41284179688
0.638,1.41284179688
0.639,115.782385254
0.64,303.596154785
0.641,500.357922363
0.642,698.532531738
0.643,890.113879395
0.644,1069.94509277
0.645,1229.97297363
0.646,1247.86896973
0.647,1245.98518066
0.648,1246.9270752
0.649,1246.9270752
0.65,1245.04328613
0.651,1247.39802246
0.652,1245.98518066
0.653,1246.45612793
0.654,1229.97297363
0.655,1069.94509277
0.656,890.113879395
0.657,697.590637207
0.658,498.003186035
0.659,300.770471191
0.66,111.543859863
0.661,1.41284179688
0.662,1.41284179688
0.663,1.41284179688
0.664,0.94189453125
0.665,0.94189453125
0.666,0.94189453125
0.667,0.94189453125
0.668,1.41284179688
0.669,1.41284179688
0.67,1.41284179688
0.671,1.41284179688
0.672,57.432019043
0.673,240.536315918
0.674,435.414294434
0.675,634.059851074
0.676,828.466882324
0.677,1012.51307373
0.678,1179.13421631
0.679,1246.45612793
0.68,1247.39802246
0.681,1245.04328613
0.682,1247.39802246
0.683,1246.45612793
0.684,1245.04328613
0.685,1247.39802246
0.686,1245.5142334
0.687,1247.39802246
0.688,1122.17314453
0.689,948.958740234
0.69,759.732128906
0.691,562.970361328
0.692,364.324804687
0.693,172.272509766
0.694,1.41284179688
0.695,1.41284179688
0.696,1.41284179688
0.697,1.41284179688
0.698,1.41284179688
0.699,1.41284179688
0.7,0.94189453125
0.701,1.41284179688
0.702,1.41284179688
0.703,1.41284179688
0.704,1.41284179688
0.705,1.41284179688
0.706,179.33671875
0.707,370.447119141
0.708,568.621728516
0.709,764.912548828
0.71,952.726318359
0.711,1125.46977539
0.712,1245.98518066
0.713,1246.9270752
0.714,1246.9270752
0.715,1245.04328613
0.716,1246.9270752
0.717,1245.98518066
0.718,1245.5142334
0.719,1247.39802246
0.72,1245.98518066
0.721,1175.83758545
0.722,1009.21644287
0.723,824.699304199
0.724,629.350378418
0.725,430.233874512
0.726,235.826843262
0.727,50.8387573242
0.728,1.41284179688
0.729,1.41284179688
0.73,1.41284179688
0.731,1.41284179688
0.732,1.41284179688
0.733,1.41284179688
0.734,1.41284179688
0.735,0.94189453125
0.736,1.41284179688
0.737,1.41284179688
0.738,1.41284179688
0.739,117.195227051
0.74,304.538049316
0.741,501.77076416
0.742,699.003479004
0.743,890.58482666
0.744,1069.94509277
0.745,1229.50202637
0.746,1245.98518066
0.747,1247.39802246
0.748,1246.9270752
0.749,1245.04328613
0.75,1247.39802246
0.751,1245.98518066
0.752,1246.9270752
0.753,1246.9270752
0.754,1227.6182373
0.755,1067.59035645
0.756,888.230090332
0.757,696.17779541
0.758,497.061291504
0.759,299.381176758
0.76,111.072912598
0.761,1.41284179688
0.762,1.41284179688
0.763,0.94189453125
0.764,1.41284179688
0.765,0.94189453125
0.766,0.94189453125
0.767,1.41284179688
0.768,0.94189453125
0.769,0.94189453125
0.77,1.41284179688
0.771,1.41284179688
0.772,57.432019043
0.773,240.536315918
0.774,434.943347168
0.775,633.588903809
0.776,827.995935059
0.777,1011.5711792
0.778,1178.66326904
0.779,1247.39802246
0.78,1245.98518066
0.781,1247.39802246
0.782,1245.98518066
0.783,1245.5142334
0.784,1246.9270752
0.785,1245.5142334
0.786,1247.86896973
0.787,1246.9270752
0.788,1123.58598633
0.789,950.371582031
0.79,761.615917969
0.791,564.383203125
0.792,364.795751953
0.793,173.685351562
0.794,1.41284179688
0.795,1.41284179688
0.796,1.41284179688
0.797,0.94189453125
0.798,1.41284179688
0.799,0.94189453125
0.8,0.94189453125
0.801,0.94189453125
0.802,1.41284179688
0.803,1.41284179688
0.804,1.41284179688
0.805,1.41284179688
0.806,177.452929687
0.807,369.034277344
0.808,567.208886719
0.809,763.970654297
0.81,951.784423828
0.811,1125.46977539
0.812,1247.39802246
0.813,1246.9270752
0.814,1245.04328613
0.815,1247.39802246
0.816,1245.98518066
0.817,1246.45612793
0.818,1246.9270752
0.819,1245.04328613
0.82,1247.86896973
0.821,1176.77947998
0.822,1009.21644287
0.823,824.699304199
0.824,628.879431152
0.825,429.29197998
0.826,234.88494873
0.827,50.3678100586
0.828,1.41284179688
0.829,0.94189453125
0.83,1.41284179688
0.831,0.94189453125
0.832,0.94189453125
0.833,0.94189453125
0.834,0.94189453125
0.835,0.94189453125
0.836,1.41284179688
0.837,1.41284179688
0.838,1.41284179688
0.839,121.433752441
0.84,308.776574707
0.841,505.06739502
0.842,702.300109863
0.843,892.939562988
0.844,1071.33438721
0.845,1229.50202637
0.846,1247.86896973
0.847,1246.45612793
0.848,1245.98518066
0.849,1247.39802246
0.85,1245.5142334
0.851,1246.9270752
0.852,1246.9270752
0.853,1246.45612793
0.854,1221.49592285
0.855,1061.46804199
0.856,882.578723145
0.857,690.526428223
0.858,492.846313477
0.859,296.555493164
0.86,109.189123535
0.861,1.41284179688
0.862,1.41284179688
0.863,1.41284179688
0.864,1.41284179688
0.865,0.94189453125
0.866,1.41284179688
0.867,0.94189453125
0.868,0.94189453125
0.869,1.41284179688
0.87,1.41284179688
0.871,1.8837890625
0.872,62.1179443359
0.873,245.245788574
0.874,439.181872559
0.875,636.414587402
0.876,830.327124023
0.877,1012.51307373
0.878,1178.66326904
0.879,1246.45612793
0.88,1246.9270752
0.881,1245.04328613
0.882,1245.98518066
0.883,1246.9270752
0.884,1245.04328613
0.885,1246.9270752
0.886,1246.45612793
0.887,1246.45612793
0.888,1119.8184082
0.889,947.545898438
0.89,759.261181641
0.891,562.499414063
0.892,363.853857422
0.893,173.214404297
0.894,1.41284179688
0.895,1.8837890625
0.896,1.41284179688
0.897,1.41284179688
0.898,0.94189453125
0.899,1.41284179688
0.9,1.41284179688
0.901,0.94189453125
0.902,1.41284179688
0.903,1.41284179688
0.904,1.41284179688
0.905,1.41284179688
0.906,179.33671875
0.907,370.447119141
0.908,568.621728516
0.909,764.441601562
0.91,952.255371094
0.911,1125.46977539
0.912,1246.45612793
0.913,1245.98518066
0.914,1247.39802246
0.915,1245.04328613
0.916,1246.9270752
0.917,1246.9270752
0.918,1245.5142334
0.919,1246.9270752
0.92,1246.45612793
0.921,1176.30853271
0.922,1009.21644287
0.923,825.170251465
0.924,629.821325684
0.925,430.233874512
0.926,235.826843262
0.927,51.3097045898
0.928,1.41284179688
0.929,1.41284179688
0.93,0.94189453125
0.931,1.41284179688
0.932,0.94189453125
0.933,0.94189453125
0.934,1.41284179688
0.935,1.41284179688
0.936,1.41284179688
0.937,0.94189453125
0.938,0.94189453125
0.939,117.666174316
0.94,305.008996582
0.941,501.77076416
0.942,699.003479004
0.943,890.58482666
0.944,1069.47414551
0.945,1229.0310791
0.946,1246.45612793
0.947,1245.98518066
0.948,1247.39802246
0.949,1245.04328613
0.95,1247.39802246
0.951,1246.45612793
0.952,1245.04328613
0.953,1247.39802246
0.954,1228.08918457
0.955,1068.53225098
0.956,889.642932129
0.957,696.648742676
0.958,498.003186035
0.959,300.770471191
0.96,112.014807129
