"Latest: Time (s)","Latest: Potential (mV)"
0,1.41284179688
0.001,0.94189453125
0.002,0.94189453125
0.003,0.94189453125
0.004,0.94189453125
0.005,0.94189453125
0.006,1.41284179688
0.007,1.41284179688
0.008,82.8396240234
0.009,360.557226562
0.01,652.874194336
0.011,935.772216797
0.012,1195.61737061
0.013,1246.9270752
0.014,1245.5142334
0.015,1246.9270752
0.016,1245.04328613
0.017,1246.9270752
0.018,1247.39802246
0.019,1245.98518066
0.02,1121.70219727
0.021,854.34543457
0.022,564.383203125
0.023,270.653393555
0.024,1.8837890625
0.025,1.41284179688
0.026,1.41284179688
0.027,0.94189453125
0.028,0.94189453125
0.029,0.94189453125
0.03,1.41284179688
0.031,1.41284179688
0.032,1.41284179688
0.033,75.7754150391
0.034,355.376806641
0.035,649.106616211
0.036,932.946533203
0.037,1193.73358154
0.038,1247.39802246
0.039,1246.9270752
0.04,1245.04328613
0.041,1246.9270752
0.042,1245.98518066
0.043,1246.45612793
0.044,1247.39802246
0.045,1123.58598633
0.046,855.758276367
0.047,564.854150391
0.048,271.595288086
0.049,1.8837890625
0.05,1.41284179688
0.051,0.94189453125
0.052,0.94189453125
0.053,0.94189453125
0.054,0.94189453125
0.055,0.94189453125
0.056,1.41284179688
0.057,1.41284179688
0.058,74.3625732422
0.059,353.963964844
0.06,648.16472168
0.061,932.475585938
0.062,1193.73358154
0.063,1245.98518066
0.064,1246.9270752
0.065,1246.45612793
0.066,1245.04328613
0.067,1247.39802246
0.068,1245.98518066
0.069,1246.45612793
0.07,1124.05693359
0.071,856.700170898
0.072,566.266992188
0.073,272.066235352
0.074,1.41284179688
0.075,0.94189453125
0.076,0.94189453125
0.077,0.94189453125
0.078,0.94189453125
0.079,1.41284179688
0.08,0.94189453125
0.081,0.94189453125
0.082,1.41284179688
0.083,74.8335205078
0.084,354.905859375
0.085,648.635668945
0.086,932.946533203
0.087,1194.20452881
0.088,1247.39802246
0.089,1245.5142334
0.09,1247.39802246
0.091,1246.45612793
0.092,1245.04328613
0.093,1247.39802246
0.094,1246.45612793
0.095,1115.60343018
0.096,845.868383789
0.097,554.493310547
0.098,261.705395508
0.099,1.41284179688
0.1,1.41284179688
0.101,1.41284179688
0.102,0.94189453125
0.103,0.94189453125
0.104,0.94189453125
0.105,0.94189453125
0.106,0.94189453125
0.107,1.8837890625
0.108,89.4328857422
0.109,367.621435547
0.11,659.467456055
0.111,940.952636719
0.112,1198.4430542
0.113,1245.5142334
0.114,1246.9270752
0.115,1245.5142334
0.116,1246.9270752
0.117,1246.9270752
0.118,1245.04328613
0.119,1247.39802246
0.12,1109.01016846
0.121,841.629858398
0.122,553.08046875
0.123,262.176342773
0.124,1.41284179688
0.125,0.94189453125
0.126,0.94189453125
0.127,0.94189453125
0.128,0.94189453125
0.129,0.94189453125
0.13,0.94189453125
0.131,1.41284179688
0.132,1.41284179688
0.133,89.4328857422
0.134,367.621435547
0.135,658.996508789
0.136,940.010742188
0.137,1197.50115967
0.138,1246.9270752
0.139,1245.04328613
0.14,1246.9270752
0.141,1245.98518066
0.142,1246.45612793
0.143,1246.9270752
0.144,1245.98518066
0.145,1119.3710083
0.146,851.990698242
0.147,562.028466797
0.148,269.711499023
0.149,1.41284179688
0.15,1.41284179688
0.151,0.94189453125
0.152,0.94189453125
0.153,0.94189453125
0.154,0.94189453125
0.155,0.94189453125
0.156,0.94189453125
0.157,1.41284179688
0.158,74.3625732422
0.159,353.493017578
0.16,647.693774414
0.161,932.004638672
0.162,1193.26263428
0.163,1247.39802246
0.164,1246.9270752
0.165,1245.5142334
0.166,1247.39802246
0.167,1245.98518066
0.168,1245.98518066
0.169,1247.39802246
0.17,1124.05693359
0.171,856.229223633
0.172,566.266992188
0.173,272.066235352
0.174,1.41284179688
0.175,1.41284179688
0.176,1.41284179688
0.177,0.94189453125
0.178,0.94189453125
0.179,0.94189453125
0.18,1.41284179688
0.181,1.41284179688
0.182,0.94189453125
0.183,74.8335205078
0.184,353.963964844
0.185,647.693774414
0.186,932.004638672
0.187,1192.79168701
0.188,1246.45612793
0.189,1246.9270752
0.19,1246.45612793
0.191,1245.04328613
0.192,1247.39802246
0.193,1245.98518066
0.194,1245.98518066
0.195,1125.46977539
0.196,856.700170898
0.197,566.266992188
0.198,273.008129883
0.199,1.41284179688
0.2,0.94189453125
0.201,0.94189453125
0.202,0.94189453125
0.203,0.94189453125
0.204,0.94189453125
0.205,1.41284179688
0.206,1.41284179688
0.207,1.41284179688
0.208,72.9497314453
0.209,352.551123047
0.21,646.751879883
0.211,931.062744141
0.212,1192.79168701
0.213,1247.39802246
0.214,1245.98518066
0.215,1246.45612793
0.216,1246.9270752
0.217,1245.04328613
0.218,1246.9270752
0.219,1245.98518066
0.22,1125.46977539
0.221,856.700170898
0.222,566.737939453
0.223,272.066235352
0.224,1.41284179688
0.225,1.41284179688
0.226,1.41284179688
0.227,1.41284179688
0.228,0.94189453125
0.229,0.94189453125
0.23,1.41284179688
0.231,1.41284179688
0.232,0.94189453125
0.233,83.7815185547
0.234,364.324804687
0.235,659.467456055
0.236,943.778320313
0.237,1201.26873779
0.238,1245.98518066
0.239,1246.9270752
0.24,1245.5142334
0.241,1246.45612793
0.242,1246.9270752
0.243,1245.98518066
0.244,1247.86896973
0.245,1106.18448486
0.246,838.333227539
0.247,549.783837891
0.248,259.821606445
0.249,1.41284179688
0.25,0.94189453125
0.251,0.94189453125
0.252,0.94189453125
0.253,0.94189453125
0.254,0.94189453125
0.255,1.41284179688
0.256,1.41284179688
0.257,1.41284179688
0.258,91.7876220703
0.259,369.505224609
0.26,660.880297852
0.261,941.89453125
0.262,1199.38494873
0.263,1246.9270752
0.264,1245.04328613
0.265,1247.39802246
0.266,1245.98518066
0.267,1245.98518066
0.268,1246.9270752
0.269,1245.98518066
0.27,1109.01016846
0.271,843.042700195
0.272,557.318994141
0.273,266.414868164
0.274,1.41284179688
0.275,1.41284179688
0.276,1.41284179688
0.277,0.94189453125
0.278,0.94189453125
0.279,0.94189453125
0.28,1.41284179688
0.281,1.41284179688
0.282,1.41284179688
0.283,77.6592041016
0.284,356.318701172
0.285,649.106616211
0.286,932.475585938
0.287,1193.26263428
0.288,1246.9270752
0.289,1246.9270752
0.29,1245.04328613
0.291,1246.9270752
0.292,1245.5142334
0.293,1245.98518066
0.294,1247.39802246
0.295,1124.52788086
0.296,856.700170898
0.297,566.266992188
0.298,272.537182617
0.299,1.41284179688
0.3,1.41284179688
0.301,1.41284179688
0.302,0.94189453125
0.303,0.94189453125
0.304,0.94189453125
0.305,1.41284179688
0.306,1.41284179688
0.307,1.41284179688
0.308,73.8916259766
0.309,353.022070312
0.31,647.222827148
0.311,931.062744141
0.312,1192.32073975
0.313,1245.98518066
0.314,1246.45612793
0.315,1246.9270752
0.316,1245.04328613
0.317,1247.39802246
0.318,1245.98518066
0.319,1245.98518066
0.32,1124.52788086
0.321,856.700170898
0.322,567.208886719
0.323,273.008129883
0.324,1.41284179688
0.325,1.41284179688
0.326,0.94189453125
0.327,1.41284179688
0.328,1.41284179688
0.329,0.94189453125
0.33,1.41284179688
0.331,1.41284179688
0.332,1.41284179688
0.333,74.3625732422
0.334,353.493017578
0.335,646.751879883
0.336,930.591796875
0.337,1191.84979248
0.338,1247.86896973
0.339,1245.98518066
0.34,1245.98518066
0.341,1246.9270752
0.342,1245.04328613
0.343,1247.39802246
0.344,1246.45612793
0.345,1125.94072266
0.346,857.64206543
0.347,567.208886719
0.348,273.479077148
0.349,1.41284179688
0.35,1.41284179688
0.351,0.94189453125
0.352,0.94189453125
0.353,1.41284179688
0.354,0.94189453125
0.355,0.94189453125
0.356,0.94189453125
0.357,1.41284179688
0.358,75.3044677734
0.359,354.905859375
0.36,649.577563477
0.361,933.417480469
0.362,1194.67547607
0.363,1245.5142334
0.364,1247.39802246
0.365,1245.98518066
0.366,1245.5142334
0.367,1246.9270752
0.368,1245.04328613
0.369,1247.86896973
0.37,1111.36490479
0.371,842.57175293
0.372,553.551416016
0.373,261.705395508
0.374,1.41284179688
0.375,1.41284179688
0.376,0.94189453125
0.377,0.94189453125
0.378,0.94189453125
0.379,0.94189453125
0.38,0.94189453125
0.381,1.41284179688
0.382,1.41284179688
0.383,94.6133056641
0.384,372.330908203
0.385,662.293139648
0.386,942.365478516
0.387,1198.91400146
0.388,1246.9270752
0.389,1245.5142334
0.39,1247.39802246
0.391,1245.98518066
0.392,1245.98518066
0.393,1246.9270752
0.394,1245.98518066
0.395,1104.77164307
0.396,837.391333008
0.397,548.841943359
0.398,259.35065918
0.399,1.41284179688
0.4,1.41284179688
0.401,0.94189453125
0.402,0.94189453125
0.403,0.94189453125
0.404,0.94189453125
0.405,0.94189453125
0.406,1.41284179688
0.407,1.41284179688
0.408,92.7295166016
0.409,371.389013672
0.41,661.822192383
0.411,942.365478516
0.412,1199.38494873
0.413,1246.45612793
0.414,1246.9270752
0.415,1245.04328613
0.416,1247.39802246
0.417,1245.98518066
0.418,1245.04328613
0.419,1247.86896973
0.42,1115.13248291
0.421,849.635961914
0.422,561.557519531
0.423,269.711499023
0.424,1.41284179688
0.425,1.41284179688
0.426,1.41284179688
0.427,0.94189453125
0.428,0.94189453125
0.429,0.94189453125
0.43,1.41284179688
0.431,1.41284179688
0.432,1.41284179688
0.433,74.3625732422
0.434,353.493017578
0.435,647.222827148
0.436,931.062744141
0.437,1192.32073975
0.438,1245.98518066
0.439,1245.98518066
0.44,1246.9270752
0.441,1245.5142334
0.442,1247.39802246
0.443,1245.98518066
0.444,1245.98518066
0.445,1124.52788086
0.446,857.64206543
0.447,566.737939453
0.448,273.479077148
0.449,1.8837890625
0.45,0.94189453125
0.451,0.94189453125
0.452,0.94189453125
0.453,0.94189453125
0.454,0.94189453125
0.455,0.94189453125
0.456,1.41284179688
0.457,1.41284179688
0.458,72.9497314453
0.459,352.551123047
0.46,646.280932617
0.461,930.120849609
0.462,1191.84979248
0.463,1247.39802246
0.464,1245.98518066
0.465,1245.5142334
0.466,1247.39802246
0.467,1245.04328613
0.468,1247.39802246
0.469,1247.39802246
0.47,1125.94072266
0.471,858.113012695
0.472,568.15078125
0.473,273.950024414
0.474,1.41284179688
0.475,1.41284179688
0.476,0.94189453125
0.477,0.94189453125
0.478,0.94189453125
0.479,0.94189453125
0.48,0.94189453125
0.481,1.41284179688
0.482,1.41284179688
0.483,72.4787841797
0.484,352.080175781
0.485,645.809985352
0.486,930.120849609
0.487,1191.37884521
0.488,1245.98518066
0.489,1246.9270752
0.49,1245.98518066
0.491,1245.98518066
0.492,1247.39802246
0.493,1245.5142334
0.494,1247.86896973
0.495,1126.41166992
0.496,858.113012695
0.497,566.266992188
0.498,272.066235352
0.499,1.41284179688
0.5,1.41284179688
0.501,0.94189453125
0.502,0.94189453125
0.503,0.94189453125
0.504,0.94189453125
0.505,0.94189453125
0.506,1.41284179688
0.507,0.94189453125
0.508,80.4848876953
0.509,359.144384766
0.51,652.40324707
0.511,935.301269531
0.512,1195.14642334
0.513,1246.9270752
0.514,1245.04328613
0.515,1247.39802246
0.516,1245.98518066
0.517,1245.98518066
0.518,1246.9270752
0.519,1245.98518066
0.52,1105.24259033
0.521,837.862280273
0.522,549.783837891
0.523,259.821606445
0.524,1.41284179688
0.525,1.41284179688
0.526,0.94189453125
0.527,0.94189453125
0.528,1.41284179688
0.529,0.94189453125
0.53,0.94189453125
0.531,0.94189453125
0.532,1.41284179688
0.533,95.0842529297
0.534,373.272802734
0.535,663.705981445
0.536,943.307373047
0.537,1199.38494873
0.538,1245.98518066
0.539,1246.9270752
0.54,1245.04328613
0.541,1247.39802246
0.542,1246.45612793
0.543,1245.04328613
0.544,1247.39802246
0.545,1104.3006958
0.546,836.920385742
0.547,548.370996094
0.548,259.35065918
0.549,1.41284179688
0.55,1.41284179688
0.551,0.94189453125
0.552,0.94189453125
0.553,0.94189453125
0.554,0.94189453125
0.555,0.94189453125
0.556,1.41284179688
0.557,1.41284179688
0.558,91.3166748047
0.559,364.324804687
0.56,652.874194336
0.561,932.946533203
0.562,1191.37884521
0.563,1246.45612793
0.564,1245.98518066
0.565,1246.9270752
0.566,1245.98518066
0.567,1247.39802246
0.568,1246.45612793
0.569,1245.98518066
0.57,1119.3710083
0.571,852.461645508
0.572,563.912255859
0.573,271.12434082
0.574,1.41284179688
0.575,0.94189453125
0.576,0.94189453125
0.577,0.94189453125
0.578,0.94189453125
0.579,0.94189453125
0.58,0.94189453125
0.581,1.41284179688
0.582,1.41284179688
0.583,73.8916259766
0.584,352.551123047
0.585,646.280932617
0.586,930.120849609
0.587,1191.37884521
0.588,1247.39802246
0.589,1246.45612793
0.59,1245.5142334
0.591,1246.9270752
0.592,1245.5142334
0.593,1247.39802246
0.594,1246.9270752
0.595,1126.41166992
0.596,858.113012695
0.597,567.679833984
0.598,273.950024414
0.599,1.41284179688
0.6,1.41284179688
0.601,0.94189453125
0.602,0.94189453125
0.603,0.94189453125
0.604,0.94189453125
0.605,1.41284179688
0.606,1.41284179688
0.607,1.41284179688
0.608,72.0078369141
0.609,351.13828125
0.61,645.339038086
0.611,929.649902344
0.612,1190.90789795
0.613,1245.98518066
0.614,1247.39802246
0.615,1246.45612793
0.616,1245.5142334
0.617,1246.9270752
0.618,1245.04328613
0.619,1247.86896973
0.62,1126.88261719
0.621,859.054907227
0.622,569.563623047
0.623,275.362866211
0.624,1.41284179688
0.625,1.41284179688
0.626,1.41284179688
0.627,0.94189453125
0.628,0.94189453125
0.629,0.94189453125
0.63,0.94189453125
0.631,1.41284179688
0.632,1.41284179688
0.633,71.5368896484
0.634,351.13828125
0.635,644.397143555
0.636,929.178955078
0.637,1190.90789795
0.638,1246.9270752
0.639,1245.04328613
0.64,1247.86896973
0.641,1246.45612793
0.642,1245.04328613
0.643,1247.39802246
0.644,1245.98518066
0.645,1127.35356445
0.646,858.583959961
0.647,568.15078125
0.648,273.950024414
0.649,1.8837890625
0.65,1.41284179688
0.651,0.94189453125
0.652,1.41284179688
0.653,0.94189453125
0.654,0.94189453125
0.655,0.94189453125
0.656,1.41284179688
0.657,1.41284179688
0.658,88.4909912109
0.659,368.092382812
0.66,660.409350586
0.661,940.952636719
0.662,1198.91400146
0.663,1245.98518066
0.664,1246.9270752
0.665,1245.5142334
0.666,1247.39802246
0.667,1246.45612793
0.668,1245.5142334
0.669,1247.39802246
0.67,1103.82974854
0.671,837.391333008
0.672,550.254785156
0.673,260.292553711
0.674,1.41284179688
0.675,1.41284179688
0.676,1.41284179688
0.677,0.94189453125
0.678,0.94189453125
0.679,1.41284179688
0.68,0.94189453125
0.681,1.41284179688
0.682,1.41284179688
0.683,91.3166748047
0.684,369.034277344
0.685,659.93840332
0.686,940.010742188
0.687,1197.0302124
0.688,1246.45612793
0.689,1245.04328613
0.69,1246.9270752
0.691,1245.5142334
0.692,1247.39802246
0.693,1246.9270752
0.694,1245.98518066
0.695,1109.01016846
0.696,840.217016602
0.697,550.725732422
0.698,259.821606445
0.699,1.8837890625
0.7,0.94189453125
0.701,0.94189453125
0.702,0.94189453125
0.703,0.470947265625
0.704,1.41284179688
0.705,1.41284179688
0.706,1.41284179688
0.707,1.41284179688
0.708,86.6072021484
0.709,361.970068359
0.71,652.40324707
0.711,932.946533203
0.712,1191.37884521
0.713,1247.39802246
0.714,1246.45612793
0.715,1245.5142334
0.716,1247.39802246
0.717,1245.98518066
0.718,1246.9270752
0.719,1247.39802246
0.72,1122.6440918
0.721,855.758276367
0.722,566.737939453
0.723,273.479077148
0.724,1.41284179688
0.725,1.41284179688
0.726,1.41284179688
0.727,1.41284179688
0.728,0.94189453125
0.729,0.94189453125
0.73,0.94189453125
0.731,1.41284179688
0.732,1.41284179688
0.733,72.4787841797
0.734,351.13828125
0.735,645.339038086
0.736,929.649902344
0.737,1190.43695068
0.738,1245.98518066
0.739,1247.39802246
0.74,1246.45612793
0.741,1245.04328613
0.742,1246.9270752
0.743,1245.98518066
0.744,1246.9270752
0.745,1126.41166992
0.746,858.583959961
0.747,568.15078125
0.748,274.891918945
0.749,1.41284179688
0.75,1.41284179688
0.751,1.41284179688
0.752,0.94189453125
0.753,0.94189453125
0.754,0.94189453125
0.755,0.94189453125
0.756,1.41284179688
0.757,1.41284179688
0.758,72.0078369141
0.759,351.13828125
0.76,644.86809082
0.761,928.708007813
0.762,1190.90789795
0.763,1246.9270752
0.764,1245.04328613
0.765,1247.39802246
0.766,1246.9270752
0.767,1245.5142334
0.768,1246.9270752
0.769,1245.98518066
0.77,1127.35356445
0.771,859.525854492
0.772,569.563623047
0.773,275.833813477
0.774,1.41284179688
0.775,1.41284179688
0.776,0.94189453125
0.777,0.94189453125
0.778,0.94189453125
0.779,0.94189453125
0.78,0.94189453125
0.781,0.94189453125
0.782,1.41284179688
0.783,71.0659423828
0.784,350.196386719
0.785,643.455249023
0.786,927.766113281
0.787,1189.49505615
0.788,1245.98518066
0.789,1246.9270752
0.79,1245.04328613
0.791,1247.39802246
0.792,1246.9270752
0.793,1245.04328613
0.794,1247.39802246
0.795,1125.46977539
0.796,856.700170898
0.797,565.325097656
0.798,270.653393555
0.799,1.41284179688
0.8,1.41284179688
0.801,1.41284179688
0.802,0.94189453125
0.803,0.94189453125
0.804,0.94189453125
0.805,0.94189453125
0.806,1.41284179688
0.807,1.41284179688
0.808,90.8457275391
0.809,368.092382812
0.81,659.467456055
0.811,940.010742188
0.812,1196.55926514
0.813,1246.9270752
0.814,1245.5142334
0.815,1247.39802246
0.816,1245.04328613
0.817,1246.9270752
0.818,1246.9270752
0.819,1246.45612793
0.82,1106.65543213
0.821,841.629858398
0.822,554.964257813
0.823,265.002026367
0.824,1.41284179688
0.825,1.41284179688
0.826,1.41284179688
0.827,1.41284179688
0.828,0.94189453125
0.829,0.94189453125
0.83,0.94189453125
0.831,1.41284179688
0.832,1.41284179688
0.833,86.1362548828
0.834,363.853857422
0.835,655.228930664
0.836,936.714111328
0.837,1195.14642334
0.838,1247.39802246
0.839,1246.45612793
0.84,1245.5142334
0.841,1247.39802246
0.842,1245.98518066
0.843,1246.45612793
0.844,1246.9270752
0.845,1111.83585205
0.846,843.984594727
0.847,555.435205078
0.848,264.531079102
0.849,1.41284179688
0.85,1.41284179688
0.851,0.94189453125
0.852,0.94189453125
0.853,0.94189453125
0.854,0.94189453125
0.855,0.94189453125
0.856,1.41284179688
0.857,1.41284179688
0.858,103.561303711
0.859,381.749853516
0.86,672.183032227
0.861,947.074951172
0.862,1194.67547607
0.863,1246.45612793
0.864,1247.39802246
0.865,1246.45612793
0.866,1245.04328613
0.867,1247.39802246
0.868,1245.04328613
0.869,1246.45612793
0.87,1117.48721924
0.871,851.519750977
0.872,563.441308594
0.873,271.12434082
0.874,1.41284179688
0.875,0.94189453125
0.876,1.41284179688
0.877,0.94189453125
0.878,0.94189453125
0.879,0.94189453125
0.88,0.94189453125
0.881,1.41284179688
0.882,1.41284179688
0.883,71.0659423828
0.884,349.725439453
0.885,643.926196289
0.886,928.237060547
0.887,1189.49505615
0.888,1246.9270752
0.889,1245.98518066
0.89,1247.39802246
0.891,1246.45612793
0.892,1245.98518066
0.893,1247.39802246
0.894,1245.98518066
0.895,1126.88261719
0.896,859.054907227
0.897,569.092675781
0.898,275.362866211
0.899,1.8837890625
0.9,1.41284179688
0.901,0.94189453125
0.902,1.41284179688
0.903,0.94189453125
0.904,0.470947265625
0.905,0.94189453125
0.906,0.94189453125
0.907,1.41284179688
0.908,71.5368896484
0.909,350.196386719
0.91,643.926196289
0.911,928.237060547
0.912,1189.96600342
0.913,1245.5142334
0.914,1246.9270752
0.915,1245.5142334
0.916,1246.9270752
0.917,1246.9270752
0.918,1245.04328613
0.919,1247.86896973
0.92,1127.35356445
0.921,859.525854492
0.922,570.034570313
0.923,276.775708008
0.924,1.41284179688
0.925,1.8837890625
0.926,1.41284179688
0.927,1.41284179688
0.928,0.94189453125
0.929,0.94189453125
0.93,0.94189453125
0.931,1.41284179688
0.932,1.41284179688
0.933,70.1240478516
0.934,349.725439453
0.935,642.984301758
0.936,927.295166016
0.937,1188.55316162
0.938,1246.45612793
0.939,1245.98518066
0.94,1247.39802246
0.941,1245.98518066
0.942,1246.45612793
0.943,1246.9270752
0.944,1245.98518066
0.945,1127.82451172
0.946,859.525854492
0.947,568.15078125
0.948,273.479077148
0.949,1.41284179688
0.95,1.41284179688
0.951,0.94189453125
0.952,0.94189453125
0.953,0.94189453125
0.954,0.94189453125
0.955,1.41284179688
0.956,1.41284179688
0.957,1.8837890625
0.958,88.4909912109
0.959,365.737646484
0.96,656.641772461
